Data from Subt18__3__10-34-12-211.txt Node

Date: Mon Feb 19 10:34:12 CET 2024
User: Versuch 234
Spectrometer: USB4F03543
Trigger mode: 4
Integration Time (sec): 3,000000E-2
Scans to average: 130
Electric dark correction enabled: true
Nonlinearity correction enabled: false
Boxcar width: 0
XAxis mode: Wavelengths
Number of Pixels in Spectrum: 3648
>>>>>Begin Spectral Data<<<<<
179,969	94
180,181	94
180,394	94
180,606	94,37
180,819	109,1
181,031	-13,54
181,243	-26,36
181,456	11,49
181,668	8,36
181,88	-25,79
182,093	2,99
182,305	34,31
182,518	33,99
182,73	-42,13
182,942	-2,32
183,155	13,16
183,367	5,84
183,579	-16,63
183,791	17,89
184,004	77,36
184,216	76,21
184,428	69,11
184,641	58,02
184,853	96,11
185,065	87,11
185,277	71,45
185,49	48,67
185,702	108,88
185,914	92,69
186,126	55,2
186,338	65,86
186,551	57,43
186,763	52,12
186,975	100,2
187,187	52,82
187,399	73,88
187,612	44,99
187,824	73,69
188,036	53,51
188,248	59,65
188,46	74,64
188,672	66,41
188,885	86,89
189,097	32,13
189,309	84,99
189,521	75,08
189,733	69,55
189,945	64,38
190,157	45,66
190,369	95,13
190,581	65,58
190,794	55,76
191,006	88,45
191,218	69,88
191,43	55,73
191,642	86,37
191,854	75,5
192,066	40,17
192,278	64,57
192,49	85,35
192,702	89,16
192,914	91,7
193,126	100,94
193,338	63,94
193,55	87,85
193,762	62,06
193,974	116,46
194,186	98,38
194,398	89,02
194,61	55,18
194,822	72,92
195,034	66,07
195,246	51,59
195,457	108,82
195,669	57,23
195,881	84,61
196,093	121,2
196,305	112,37
196,517	136,5
196,729	81,6
196,941	108,65
197,153	49,02
197,365	50,96
197,576	107,34
197,788	116,95
198	55,6
198,212	36,53
198,424	63,06
198,636	99,76
198,847	70,87
199,059	81,91
199,271	102,96
199,483	53,84
199,695	84,04
199,906	66,65
200,118	91,71
200,33	70,35
200,542	-93,38
200,753	84,51
200,965	81,79
201,177	61,64
201,389	71,61
201,6	108,21
201,812	84,06
202,024	75,66
202,235	80,84
202,447	26,78
202,659	20,14
202,871	62,1
203,082	75,27
203,294	89,3
203,506	68
203,717	79,72
203,929	64,03
204,141	93,62
204,352	42,56
204,564	89,82
204,775	70,84
204,987	26,49
205,199	71,61
205,41	90,33
205,622	36,24
205,833	104,32
206,045	70,59
206,257	52,45
206,468	106,3
206,68	97,07
206,891	75,91
207,103	108,84
207,314	96,99
207,526	52,58
207,737	86,83
207,949	84,73
208,16	68,54
208,372	67,18
208,583	52,85
208,795	87,73
209,006	78,56
209,218	98,3
209,429	96,75
209,641	100,49
209,852	80,43
210,064	68,96
210,275	87,38
210,487	69,18
210,698	32,13
210,909	73,06
211,121	52,5
211,332	86,26
211,544	33,85
211,755	48,55
211,966	48,8
212,178	70,16
212,389	13,79
212,6	81,35
212,812	45,79
213,023	87,27
213,234	63,86
213,446	52,71
213,657	79,22
213,868	40,26
214,08	50,74
214,291	55,27
214,502	60,08
214,714	93,05
214,925	74,92
215,136	86,04
215,347	93,48
215,559	108,22
215,77	73,2
215,981	41,41
216,192	104,87
216,404	68,11
216,615	58,03
216,826	79,31
217,037	83,5
217,249	71,93
217,46	46,09
217,671	74,6
217,882	77,28
218,093	76,87
218,304	86,72
218,516	67,97
218,727	93,49
218,938	85,51
219,149	22,92
219,36	81,39
219,571	59,45
219,782	65,78
219,993	42,4
220,205	119,14
220,416	47,22
220,627	67,72
220,838	49,78
221,049	14,55
221,26	33,22
221,471	98,99
221,682	59,17
221,893	45,3
222,104	120,97
222,315	117,23
222,526	108,19
222,737	57,46
222,948	67,34
223,159	64,33
223,37	62,41
223,581	83,24
223,792	94,6
224,003	89,32
224,214	97,68
224,425	76,9
224,636	92,31
224,847	56,94
225,058	80,24
225,269	91,03
225,48	86,88
225,691	86,34
225,902	55,07
226,112	86,66
226,323	106,46
226,534	99,18
226,745	112,66
226,956	113,15
227,167	83,33
227,378	55,35
227,589	96,49
227,799	55,04
228,01	67,83
228,221	110,71
228,432	99,49
228,643	106,71
228,853	105,5
229,064	131,69
229,275	86,36
229,486	134,55
229,697	150,08
229,907	145,45
230,118	121,03
230,329	141,43
230,54	113,78
230,75	53,27
230,961	77,99
231,172	84,78
231,383	113,29
231,593	88,8
231,804	52,42
232,015	83,87
232,225	66,05
232,436	75,31
232,647	56,08
232,857	75,16
233,068	89,14
233,279	71,91
233,489	94,52
233,7	77,12
233,91	105,59
234,121	81,09
234,332	95,67
234,542	113
234,753	122,56
234,964	92,7
235,174	110,19
235,385	97,7
235,595	109,09
235,806	74,68
236,016	124,5
236,227	108,88
236,437	137,33
236,648	117,86
236,858	133,19
237,069	145,9
237,279	145,79
237,49	123,05
237,7	112,96
237,911	105,89
238,121	157,63
238,332	121,72
238,542	120,67
238,753	142,44
238,963	133,66
239,174	133,22
239,384	125,02
239,595	147,18
239,805	146,87
240,015	151,31
240,226	129,65
240,436	123,93
240,647	123,85
240,857	145,95
241,067	139,04
241,278	58,44
241,488	142,27
241,698	109,75
241,909	137,44
242,119	140,06
242,329	115,34
242,54	107,53
242,75	140,12
242,96	141,24
243,171	140,41
243,381	126,59
243,591	160,87
243,801	112,73
244,012	91,21
244,222	139,41
244,432	172,01
244,642	147,86
244,853	163,14
245,063	160,45
245,273	134,22
245,483	141,82
245,694	139,56
245,904	154,74
246,114	133,36
246,324	178,75
246,534	169,69
246,744	159,04
246,955	200,36
247,165	127,3
247,375	122,37
247,585	160,4
247,795	166,51
248,005	143,86
248,215	125,03
248,425	164,59
248,636	96,64
248,846	200,27
249,056	158,15
249,266	176,67
249,476	170,35
249,686	162,29
249,896	189,86
250,106	157,23
250,316	189,15
250,526	118,92
250,736	194,14
250,946	132,86
251,156	139,13
251,366	180,8
251,576	167,47
251,786	155,73
251,996	208,34
252,206	190,98
252,416	175,77
252,626	189,48
252,836	198,35
253,046	170,62
253,256	164,48
253,466	191,31
253,676	160,32
253,885	152,06
254,095	159,01
254,305	156,4
254,515	151,58
254,725	175,76
254,935	186,61
255,145	163,06
255,355	141,1
255,564	170,89
255,774	158,44
255,984	132,51
256,194	138,59
256,404	179,81
256,614	121,94
256,823	126,94
257,033	185,19
257,243	146
257,453	165,44
257,662	167,52
257,872	158,79
258,082	158,27
258,292	188,44
258,501	97,9
258,711	83,17
258,921	110,92
259,131	186,79
259,34	163,12
259,55	141,64
259,76	159,23
259,969	149,02
260,179	179
260,389	133,63
260,598	117,37
260,808	140,31
261,018	157,33
261,227	118,54
261,437	168,26
261,647	120,07
261,856	166,15
262,066	133,13
262,275	109,48
262,485	140
262,694	124,61
262,904	148,8
263,114	119,12
263,323	158,81
263,533	166,81
263,742	161,91
263,952	158
264,161	164,02
264,371	157,81
264,58	158,55
264,79	156,19
264,999	151,7
265,209	137,65
265,418	136,14
265,628	139,63
265,837	119,27
266,047	131,63
266,256	97,34
266,466	172,48
266,675	181,08
266,884	156,24
267,094	144,44
267,303	92,14
267,513	143,98
267,722	118,75
267,931	118,54
268,141	162,21
268,35	139,73
268,559	119,96
268,769	147,35
268,978	161,89
269,187	121,49
269,397	157,91
269,606	173,1
269,815	145,75
270,025	129,33
270,234	98,53
270,443	153,34
270,653	129,36
270,862	121,22
271,071	144,55
271,28	142,11
271,49	150,61
271,699	164,27
271,908	121,3
272,117	129,99
272,327	154,57
272,536	128,76
272,745	144,55
272,954	145,26
273,163	110,63
273,372	95,24
273,582	145,31
273,791	134,85
274	153,04
274,209	149,28
274,418	110,84
274,627	81,2
274,836	136,29
275,046	104,02
275,255	114,48
275,464	126,62
275,673	139,07
275,882	91,11
276,091	113,06
276,3	96,77
276,509	98,61
276,718	89,07
276,927	102,96
277,136	79,88
277,345	92,61
277,554	75,36
277,763	65,58
277,972	74,7
278,181	87,41
278,39	111,17
278,599	72,97
278,808	106,13
279,017	88,85
279,226	127,32
279,435	98,03
279,644	86,51
279,853	85,43
280,062	29,53
280,271	93,84
280,48	108,44
280,688	99,02
280,897	61,89
281,106	100,55
281,315	111,85
281,524	92,22
281,733	85,02
281,942	98,05
282,151	66,65
282,359	69,55
282,568	119,67
282,777	92,04
282,986	109,32
283,195	103,89
283,403	111,17
283,612	149,94
283,821	195,69
284,03	200,87
284,238	219,92
284,447	160,92
284,656	155,1
284,865	105,92
285,073	120,48
285,282	94,56
285,491	101,23
285,699	100,14
285,908	79,47
286,117	109,07
286,325	80,59
286,534	48,72
286,743	85,79
286,951	72,19
287,16	78,46
287,369	107,56
287,577	60,5
287,786	120,75
287,995	101,67
288,203	87,13
288,412	89,19
288,62	73,52
288,829	114,11
289,037	131,33
289,246	85,96
289,455	90,55
289,663	62,08
289,872	62,95
290,08	65,99
290,289	56,75
290,497	113,03
290,706	68,84
290,914	121,44
291,123	123,71
291,331	116,27
291,54	57,1
291,748	53,98
291,957	87,1
292,165	111,81
292,373	118,3
292,582	82,12
292,79	84,39
292,999	84,29
293,207	79,96
293,415	89,52
293,624	143,07
293,832	103,29
294,041	70,84
294,249	94,66
294,457	116,37
294,666	95,26
294,874	133,9
295,082	70,68
295,291	77,41
295,499	90,83
295,707	105,31
295,915	82,78
296,124	63,31
296,332	88,89
296,54	105,59
296,749	63,39
296,957	69,28
297,165	105,42
297,373	105,8
297,581	94,74
297,79	93,67
297,998	108,76
298,206	131,49
298,414	96,41
298,622	64,49
298,831	68,16
299,039	116,79
299,247	87,74
299,455	103,01
299,663	67,17
299,871	115,33
300,08	80,73
300,288	91,79
300,496	110,68
300,704	92,22
300,912	101,12
301,12	88,29
301,328	107,21
301,536	90,34
301,744	106,99
301,952	83,65
302,16	127,68
302,368	89,62
302,576	107,73
302,784	91,62
302,992	102,52
303,2	113,01
303,408	116,6
303,616	143,26
303,824	149,94
304,032	177,81
304,24	182,34
304,448	200,33
304,656	198,19
304,864	134,23
305,072	100,33
305,28	113,63
305,488	120,67
305,696	75,97
305,904	96,12
306,111	142,88
306,319	126,24
306,527	75,01
306,735	104,55
306,943	69,91
307,151	120,62
307,359	112,3
307,566	65,25
307,774	63,43
307,982	78,18
308,19	120,02
308,398	111,74
308,605	111,28
308,813	123,2
309,021	117,99
309,229	79,19
309,436	121,06
309,644	68,07
309,852	81,14
310,06	60,21
310,267	99,78
310,475	90,5
310,683	65,45
310,89	73,74
311,098	56,75
311,306	118,15
311,513	105,1
311,721	98,96
311,929	81,22
312,136	121,8
312,344	74,45
312,552	66,18
312,759	117,41
312,967	94,14
313,174	72,65
313,382	83,58
313,589	85,63
313,797	66,71
314,005	101,42
314,212	94,52
314,42	127,39
314,627	112,85
314,835	94,75
315,042	97,42
315,25	133,59
315,457	114,84
315,665	141,23
315,872	73,83
316,08	77,31
316,287	117,61
316,495	-50,79
316,702	121,91
316,909	122,53
317,117	55,83
317,324	101,61
317,532	78,09
317,739	135,07
317,946	112,18
318,154	101,2
318,361	132,69
318,569	101,15
318,776	132,94
318,983	143,42
319,191	119,61
319,398	101,94
319,605	121,28
319,813	78,51
320,02	157,85
320,227	95,29
320,434	82,18
320,642	121,3
320,849	119,56
321,056	101,95
321,264	108
321,471	119,44
321,678	90,31
321,885	143,64
322,092	89,16
322,3	112,79
322,507	137,24
322,714	107,09
322,921	128,54
323,128	142,88
323,336	123,17
323,543	97,18
323,75	103,39
323,957	101,48
324,164	99,31
324,371	119,75
324,578	155,45
324,786	81,27
324,993	127,02
325,2	115,91
325,407	165,33
325,614	106,88
325,821	68,68
326,028	60,5
326,235	106,24
326,442	88,89
326,649	155,18
326,856	111,99
327,063	169,79
327,27	111,74
327,477	158,03
327,684	168,51
327,891	183,3
328,098	141,21
328,305	202,68
328,512	319,29
328,719	560,43
328,926	1057,87
329,133	2240,11
329,34	4383,58
329,546	8656,87
329,753	12887,96
329,96	15398,04
330,167	15215,24
330,374	14030,35
330,581	10168,62
330,788	5437,27
330,995	2858,38
331,201	1610,75
331,408	921,41
331,615	580,88
331,822	362,22
332,029	250,67
332,235	183,4
332,442	174,1
332,649	164,27
332,856	170,4
333,062	143,37
333,269	130,94
333,476	140,82
333,683	145,38
333,889	125,38
334,096	147,73
334,303	117,78
334,509	136,93
334,716	135,22
334,923	130,25
335,129	149,34
335,336	111,64
335,543	138,2
335,749	146,58
335,956	105,72
336,163	175,68
336,369	99,79
336,576	132,94
336,782	134,31
336,989	158,62
337,196	138,88
337,402	168,48
337,609	143,32
337,815	150,06
338,022	113,88
338,228	110,24
338,435	70,04
338,641	98,39
338,848	110,19
339,054	114,59
339,261	164,23
339,467	169,13
339,674	148,49
339,88	139,05
340,087	126,92
340,293	149,28
340,5	152,63
340,706	128,28
340,912	157,78
341,119	179,35
341,325	168,9
341,532	139,11
341,738	164,23
341,944	147,72
342,151	167,64
342,357	165,39
342,563	143,4
342,77	141,16
342,976	153,64
343,182	89,52
343,389	165,11
343,595	160,78
343,801	169,9
344,007	135,57
344,214	168,53
344,42	161,71
344,626	154,22
344,832	159,64
345,039	129,44
345,245	168,56
345,451	180,96
345,657	155,92
345,864	157,33
346,07	171,33
346,276	154,32
346,482	135,11
346,688	136,88
346,894	180,91
347,1	158,26
347,307	147,54
347,513	121,63
347,719	148,16
347,925	113,94
348,131	182,78
348,337	101,26
348,543	167,25
348,749	154,92
348,955	118,24
349,161	163,94
349,367	159,09
349,573	147,43
349,779	143,01
349,985	153,28
350,191	139,97
350,397	147,97
350,603	143,02
350,809	173,58
351,015	124,29
351,221	162,37
351,427	141,32
351,633	143,7
351,839	135,73
352,045	143,43
352,251	120,82
352,457	148,68
352,663	146,76
352,869	162,34
353,075	142,69
353,28	181,84
353,486	145,9
353,692	150,33
353,898	150,3
354,104	179,74
354,31	163,96
354,515	218,67
354,721	149,69
354,927	166,76
355,133	160,54
355,339	202,51
355,544	159,74
355,75	190,96
355,956	165,6
356,162	186,22
356,367	201,86
356,573	199,8
356,779	194,38
356,984	142,27
357,19	144,27
357,396	185,9
357,602	129,43
357,807	222,2
358,013	234,66
358,218	248,04
358,424	278,41
358,63	296,67
358,835	284,55
359,041	264,1
359,247	232,01
359,452	225,43
359,658	228,91
359,863	180,42
360,069	185,89
360,274	169,66
360,48	159,42
360,685	184,71
360,891	154,41
361,097	172,02
361,302	186,19
361,508	147,57
361,713	189,35
361,918	153,95
362,124	197,2
362,329	189,67
362,535	158,98
362,74	217,5
362,946	176,62
363,151	184,75
363,357	190,61
363,562	206,43
363,767	210,83
363,973	147,5
364,178	202,37
364,383	227
364,589	191,16
364,794	205,88
365	165,41
365,205	177,74
365,41	206,27
365,615	186,99
365,821	198,11
366,026	151,65
366,231	175,84
366,437	187,64
366,642	195,01
366,847	154,51
367,052	214,75
367,258	227,35
367,463	205,06
367,668	199,58
367,873	142,17
368,078	158,38
368,284	225,4
368,489	215,91
368,694	174,06
368,899	169,42
369,104	178,03
369,309	172,81
369,515	214,54
369,72	144,35
369,925	205,67
370,13	169,5
370,335	150,46
370,54	190,14
370,745	186,58
370,95	170,39
371,155	153,17
371,36	185,51
371,565	177,68
371,77	198,82
371,975	211,38
372,18	156,62
372,385	190,66
372,59	163,75
372,795	197,99
373	172,2
373,205	180,85
373,41	180,26
373,615	197,97
373,82	222,36
374,025	204,26
374,23	237,8
374,435	167,8
374,64	180,85
374,845	173,08
375,05	200,4
375,254	185,79
375,459	205,47
375,664	217,22
375,869	202,33
376,074	201,34
376,279	213,71
376,483	209,55
376,688	216,8
376,893	169,47
377,098	217,14
377,303	191,09
377,507	199,92
377,712	133,21
377,917	192,2
378,122	181,84
378,326	207,17
378,531	210,24
378,736	172,2
378,94	217,19
379,145	195,4
379,35	164,02
379,554	187,01
379,759	225,02
379,964	177,46
380,168	206,38
380,373	173,38
380,578	168,16
380,782	110,96
380,987	182,09
381,191	183,57
381,396	174,88
381,601	176,28
381,805	177,21
382,01	105,48
382,214	177,66
382,419	201,58
382,623	178,99
382,828	197,1
383,032	198,46
383,237	245,91
383,441	199,53
383,646	151,45
383,85	193,28
384,055	178,4
384,259	184,86
384,464	209,19
384,668	192,57
384,872	189,65
385,077	213,41
385,281	196,74
385,486	188,9
385,69	197,03
385,894	159,26
386,099	170,84
386,303	182,06
386,507	180,85
386,712	145,34
386,916	200,68
387,12	208,89
387,325	158,78
387,529	178,53
387,733	170,54
387,937	204,85
388,142	209,36
388,346	228,47
388,55	161,01
388,754	188,93
388,959	207,88
389,163	206,9
389,367	186,8
389,571	185,62
389,775	147,34
389,98	166,86
390,184	198,03
390,388	173,28
390,592	183,18
390,796	178,86
391	187,62
391,204	223,4
391,409	213,46
391,613	220,62
391,817	240,98
392,021	188,83
392,225	234,42
392,429	251,72
392,633	245,31
392,837	221,02
393,041	205,53
393,245	204,13
393,449	226,44
393,653	227
393,857	218,01
394,061	269,35
394,265	284,63
394,469	297,77
394,673	267,38
394,877	242,46
395,081	219,74
395,285	167,22
395,489	186,63
395,693	173,57
395,896	189,98
396,1	162,59
396,304	150,96
396,508	202,37
396,712	168,18
396,916	186,72
397,12	177,68
397,323	140,64
397,527	174,99
397,731	126,32
397,935	157,34
398,139	195,61
398,342	153,04
398,546	158,52
398,75	183,46
398,954	178,09
399,157	143,51
399,361	137,1
399,565	191,26
399,769	117,6
399,972	143,75
400,176	145,72
400,38	159,86
400,583	155,48
400,787	164,34
400,991	147,56
401,194	172,45
401,398	137,63
401,601	152,54
401,805	148,03
402,009	149,24
402,212	164,38
402,416	92,66
402,619	196,06
402,823	158,29
403,026	232,44
403,23	317,11
403,433	337,3
403,637	418,54
403,841	446,61
404,044	483,19
404,247	429,31
404,451	332,73
404,654	245,14
404,858	237,35
405,061	213,35
405,265	207,69
405,468	179,71
405,672	169,87
405,875	149,94
406,078	192,24
406,282	186,25
406,485	181,16
406,689	148,31
406,892	133,82
407,095	199,75
407,299	171,38
407,502	147,76
407,705	188,5
407,909	182,69
408,112	200,51
408,315	213,33
408,518	186,23
408,722	233,45
408,925	237,56
409,128	204,79
409,331	219,25
409,535	165,52
409,738	172,26
409,941	151,5
410,144	176,59
410,347	130,09
410,551	136,85
410,754	128,36
410,957	176,56
411,16	180,86
411,363	147,46
411,566	179,3
411,769	167
411,973	188,39
412,176	139,37
412,379	155,06
412,582	158,38
412,785	171,98
412,988	206,71
413,191	171,02
413,394	167,44
413,597	175,21
413,8	214,26
414,003	152,58
414,206	272,86
414,409	353,05
414,612	568,16
414,815	834,57
415,018	1030,31
415,221	1117,15
415,424	1084,13
415,627	954,81
415,83	689,29
416,033	481
416,235	397,69
416,438	306,91
416,641	211,36
416,844	257,38
417,047	303,06
417,25	323,01
417,453	339,74
417,655	392,53
417,858	445,1
418,061	556,77
418,264	576,95
418,467	742,26
418,669	877,12
418,872	1084,58
419,075	1310,65
419,278	1327,41
419,48	1302,72
419,683	1179,89
419,886	873,17
420,089	604,43
420,291	378,25
420,494	350,48
420,697	268,78
420,899	194,32
421,102	238,82
421,305	190,03
421,507	173,47
421,71	162,79
421,912	173,69
422,115	209,94
422,318	185,86
422,52	172,59
422,723	189,98
422,925	186,53
423,128	165,11
423,33	229,37
423,533	202,48
423,735	206,52
423,938	225,9
424,14	244,9
424,343	199,37
424,545	311,99
424,748	367,31
424,95	442,73
425,153	553,23
425,355	586,34
425,558	611,64
425,76	591,84
425,962	629,34
426,165	644,6
426,367	701,9
426,57	621,46
426,772	565,71
426,974	433,57
427,177	358,94
427,379	278,6
427,581	222,92
427,784	241,58
427,986	246,33
428,188	204,54
428,39	267,74
428,593	284,82
428,795	321,76
428,997	386,01
429,2	448,85
429,402	437,91
429,604	451,76
429,806	332,08
430,008	254,78
430,211	261,03
430,413	247,47
430,615	226,82
430,817	226,66
431,019	236,28
431,221	214,45
431,423	244,35
431,626	237,81
431,828	259
432,03	358,14
432,232	403,68
432,434	470,62
432,636	492,96
432,838	527
433,04	449,18
433,242	425,06
433,444	343,12
433,646	323,81
433,848	354,06
434,05	297,9
434,252	271,98
434,454	239,95
434,656	230,53
434,858	217,8
435,06	222,42
435,262	172,13
435,464	215,39
435,666	160,19
435,868	153,23
436,07	177,05
436,271	200,21
436,473	202,73
436,675	181,44
436,877	217,28
437,079	204,24
437,281	250,38
437,482	210,15
437,684	276,38
437,886	250,57
438,088	229,49
438,29	259,63
438,491	234,96
438,693	253,09
438,895	214,23
439,097	183,51
439,298	206,87
439,5	206,16
439,702	225,16
439,903	198,84
440,105	189,15
440,307	169,41
440,508	188,68
440,71	228,61
440,912	165,42
441,113	229,23
441,315	188,16
441,517	206,48
441,718	195,92
441,92	193,18
442,121	192,79
442,323	201,26
442,524	216,67
442,726	196,57
442,928	205,17
443,129	191,51
443,331	173,17
443,532	160,74
443,734	193,09
443,935	173,55
444,136	204,84
444,338	188,75
444,539	174,91
444,741	199,8
444,942	208,62
445,144	179,63
445,345	165,34
445,546	218,39
445,748	179,38
445,949	199,4
446,151	219,3
446,352	214,31
446,553	131,6
446,755	184,72
446,956	197,14
447,157	195,84
447,359	187,81
447,56	198,08
447,761	217,49
447,962	234,68
448,164	259,25
448,365	279,13
448,566	289,85
448,767	361,41
448,969	282,14
449,17	306,36
449,371	307,6
449,572	289,2
449,773	331,73
449,974	324,68
450,176	309,22
450,377	319,43
450,578	308,39
450,779	278,74
450,98	303,65
451,181	263,36
451,382	261,22
451,583	245,89
451,784	245,45
451,986	247,17
452,187	214,8
452,388	217,38
452,589	193,78
452,79	221,7
452,991	236,68
453,192	211,93
453,393	275,42
453,594	339,91
453,795	567,61
453,995	923,66
454,196	1227,28
454,397	1454,51
454,598	1497,01
454,799	1430,67
455	1040,9
455,201	714,52
455,402	418,77
455,603	356,94
455,804	302,43
456,004	284,32
456,205	241,31
456,406	234,69
456,607	210,13
456,808	164,51
457,008	240,22
457,209	248,26
457,41	230,63
457,611	228,67
457,811	172,65
458,012	251,45
458,213	290,41
458,414	272,63
458,614	292,98
458,815	316,2
459,016	240,76
459,216	277,56
459,417	298,04
459,618	265,68
459,818	244,63
460,019	263,84
460,22	279,35
460,42	223,68
460,621	207,5
460,821	208,16
461,022	171,98
461,223	201,06
461,423	253,38
461,624	248,19
461,824	281,09
462,025	268,91
462,225	270,59
462,426	241,61
462,626	263,27
462,827	235,34
463,027	220,37
463,228	226,85
463,428	225,84
463,628	208,41
463,829	188
464,029	251,69
464,23	261,16
464,43	223,6
464,63	298,31
464,831	359,85
465,031	400,23
465,231	580,36
465,432	714,77
465,632	761,4
465,832	889,47
466,033	879,47
466,233	786,01
466,433	566,01
466,634	496,06
466,834	377,51
467,034	361,15
467,234	276,11
467,435	272,83
467,635	265,36
467,835	273,43
468,035	241,17
468,235	244,19
468,436	226,66
468,636	250,1
468,836	312,88
469,036	276,49
469,236	301,82
469,436	311,35
469,636	234,33
469,836	280,69
470,037	284,47
470,237	262,37
470,437	194,27
470,637	274,78
470,837	264,91
471,037	239,86
471,237	252,53
471,437	223,68
471,637	243,31
471,837	222,09
472,037	241,75
472,237	207,14
472,437	243,89
472,637	194,85
472,837	250,92
473,036	270,14
473,236	228,34
473,436	323,01
473,636	372,46
473,836	447,03
474,036	443,13
474,236	500,44
474,436	434,04
474,635	403,32
474,835	329,8
475,035	285,77
475,235	305,3
475,435	266,07
475,634	288,66
475,834	273,79
476,034	255,66
476,234	294,18
476,433	264,72
476,633	187,71
476,833	228,01
477,033	254,54
477,232	290,13
477,432	217,85
477,632	179,37
477,831	237,12
478,031	261,41
478,231	244,25
478,43	260,91
478,63	250,54
478,829	323,54
479,029	262,89
479,229	270,61
479,428	279,92
479,628	251,85
479,827	242,99
480,027	264,32
480,226	192,69
480,426	246,16
480,625	213,65
480,825	238,35
481,024	225,89
481,224	194,85
481,423	246,35
481,623	201,2
481,822	274,44
482,021	230,25
482,221	258,1
482,42	225,18
482,62	261,98
482,819	286,82
483,018	267,81
483,218	292,21
483,417	245,4
483,616	294,35
483,816	223,38
484,015	240,85
484,214	262,23
484,414	270,26
484,613	241,26
484,812	302,29
485,011	348,48
485,211	279,48
485,41	258,78
485,609	314,01
485,808	278,5
486,008	314,93
486,207	303,61
486,406	287,94
486,605	323,78
486,804	333,7
487,003	347,31
487,203	388,02
487,402	377,4
487,601	381,47
487,8	353,13
487,999	379,12
488,198	355,88
488,397	345,36
488,596	327,73
488,795	317,3
488,994	293,55
489,193	326,33
489,392	263,74
489,591	280,35
489,79	297,79
489,989	298,42
490,188	265,44
490,387	227,68
490,586	295,14
490,785	277,15
490,984	264,83
491,183	308,72
491,382	384,46
491,581	654,64
491,779	1086,19
491,978	1670,54
492,177	1903,28
492,376	2067,75
492,575	2007,18
492,774	1682,91
492,972	1202,2
493,171	820,49
493,37	628,93
493,569	418,44
493,768	356,22
493,966	362,86
494,165	298,04
494,364	272,6
494,563	310,29
494,761	316,66
494,96	290,51
495,159	314,22
495,357	348,43
495,556	335,86
495,755	482,15
495,953	795,84
496,152	1645,93
496,35	3051,69
496,549	4758,88
496,748	6785,99
496,946	8221,27
497,145	8658,07
497,343	8309,11
497,542	7218,09
497,74	5467,33
497,939	3808,41
498,137	2775,35
498,336	2014,74
498,534	1471,07
498,733	1155,62
498,931	942,97
499,13	774,19
499,328	616,51
499,527	462,82
499,725	464,02
499,924	413,86
500,122	388,54
500,32	315,9
500,519	291,5
500,717	299,06
500,915	335,26
501,114	314,18
501,312	278,64
501,51	329,58
501,709	293,25
501,907	294,46
502,105	353,69
502,304	323,29
502,502	328,14
502,7	342,42
502,898	345,33
503,097	322,5
503,295	356,61
503,493	318,23
503,691	308,45
503,889	361,48
504,088	401,84
504,286	340,54
504,484	349,93
504,682	355,18
504,88	353,33
505,078	359,79
505,276	362
505,474	320,56
505,672	359,85
505,871	319,24
506,069	304,4
506,267	348,37
506,465	323,31
506,663	343,85
506,861	332,71
507,059	296,86
507,257	320,12
507,455	344,87
507,653	326,74
507,851	328,84
508,049	354,09
508,246	309,08
508,444	288,05
508,642	341,86
508,84	317,65
509,038	338,51
509,236	319,38
509,434	362,12
509,632	302,62
509,829	338,65
510,027	369,37
510,225	344,67
510,423	383,96
510,621	368,31
510,818	340,57
511,016	360,78
511,214	335,28
511,412	296,51
511,609	363,52
511,807	338,85
512,005	353,38
512,203	324,05
512,4	359,29
512,598	394,83
512,796	458,35
512,993	586,22
513,191	843,84
513,389	1186,75
513,586	1654,42
513,784	2195,95
513,981	2469,77
514,179	2560,41
514,377	2425,94
514,574	2100,06
514,772	1739,33
514,969	1338,96
515,167	1112,8
515,364	873,17
515,562	767,76
515,759	605,55
515,957	603,55
516,154	553,67
516,352	455,9
516,549	453,46
516,746	472,26
516,944	455,72
517,141	489,88
517,339	526,5
517,536	512,48
517,733	518,23
517,931	545,73
518,128	491,71
518,325	445,63
518,523	417,92
518,72	407,82
518,917	384,59
519,115	400,61
519,312	405,54
519,509	371,13
519,707	391,33
519,904	445,55
520,101	418,76
520,298	437,96
520,495	456,01
520,693	529,8
520,89	465,64
521,087	515,74
521,284	412,49
521,481	476,49
521,678	433,39
521,876	428,52
522,073	399,51
522,27	407,93
522,467	450,78
522,664	418,3
522,861	445,85
523,058	414,31
523,255	437,9
523,452	427,55
523,649	451,04
523,846	484,04
524,043	477,61
524,24	461,84
524,437	461,64
524,634	434,57
524,831	458,41
525,028	446,06
525,225	489,62
525,422	441,46
525,619	448,97
525,816	445,88
526,013	404,04
526,209	394,53
526,406	430,59
526,603	445,48
526,8	485,51
526,997	449,38
527,194	459,75
527,39	441,68
527,587	472,56
527,784	455,87
527,981	443,81
528,177	439,47
528,374	428,24
528,571	386,3
528,768	459,53
528,964	443,9
529,161	457,57
529,358	412,39
529,554	434,76
529,751	458,8
529,948	477,55
530,144	447,52
530,341	488,97
530,537	459,09
530,734	455,53
530,931	442,45
531,127	463,39
531,324	476,89
531,52	473,99
531,717	500,39
531,913	430,65
532,11	494,31
532,306	475,04
532,503	519,86
532,699	465,17
532,896	388,89
533,092	455,2
533,289	497,19
533,485	72,18
533,682	448,64
533,878	440,06
534,074	452,94
534,271	418,11
534,467	412,36
534,664	450
534,86	500,2
535,056	496,23
535,253	494,25
535,449	521,68
535,645	514,22
535,841	544,36
536,038	516,85
536,234	530,72
536,43	497,37
536,626	503,2
536,823	523,16
537,019	527,91
537,215	529,5
537,411	502,65
537,607	525,17
537,804	539,26
538	539,34
538,196	501,15
538,392	563,97
538,588	482,09
538,784	573,13
538,98	553,32
539,176	530,92
539,373	540,88
539,569	532,75
539,765	588,05
539,961	559,34
540,157	537,56
540,353	608,7
540,549	543,18
540,745	537,32
540,941	616,37
541,137	611,25
541,333	592,79
541,528	583,62
541,724	585,07
541,92	577,11
542,116	607,97
542,312	634,27
542,508	616,65
542,704	615,14
542,9	605,19
543,096	645,07
543,291	609,33
543,487	646,02
543,683	634,52
543,879	614,73
544,075	619,62
544,27	673,13
544,466	664,47
544,662	635,65
544,858	632,49
545,053	613,94
545,249	613
545,445	624,78
545,64	630,6
545,836	633,2
546,032	620,66
546,227	642,65
546,423	599,58
546,619	635,7
546,814	655,2
547,01	678,39
547,205	658,43
547,401	671,16
547,597	670,67
547,792	761,56
547,988	771,94
548,183	863,7
548,379	831,82
548,574	865,37
548,77	881,16
548,965	826,65
549,161	864,19
549,356	822,18
549,552	759,24
549,747	767,16
549,942	739,31
550,138	793,82
550,333	771,92
550,529	780,71
550,724	838,2
550,919	799,14
551,115	807,38
551,31	819,83
551,505	870,55
551,701	860,72
551,896	902
552,091	890,34
552,287	913,89
552,482	928,64
552,677	933,87
552,872	974,88
553,067	916,27
553,263	919,44
553,458	942,09
553,653	911,8
553,848	970,73
554,043	1013,14
554,239	1097
554,434	1109,82
554,629	1157,3
554,824	1145,58
555,019	1127,87
555,214	1107,32
555,409	1092,38
555,604	1058,83
555,799	1092,27
555,994	1080,33
556,189	1093,15
556,384	1064,26
556,579	1055,57
556,774	1064,59
556,969	1073,57
557,164	1077,79
557,359	1049,14
557,554	1076,96
557,749	1140,82
557,944	1121,21
558,139	1151,33
558,334	1227,59
558,529	1204,23
558,724	1271,39
558,918	1298,56
559,113	1359,11
559,308	1373,99
559,503	1436,09
559,698	1476,55
559,893	1435,4
560,087	1398,22
560,282	1449,36
560,477	1360,78
560,672	1446,33
560,866	1462,35
561,061	1415,24
561,256	1456,07
561,45	1433,19
561,645	1472,11
561,84	1475,56
562,034	1495,04
562,229	1533,84
562,424	1628,24
562,618	1646,7
562,813	1765,28
563,008	1882,5
563,202	1988,08
563,397	2181,59
563,591	2348,54
563,786	2459,02
563,98	2558,99
564,175	2689,5
564,369	2859,89
564,564	2898,55
564,758	2974,61
564,953	3079,7
565,147	3096,35
565,342	3090,22
565,536	3145,86
565,731	3305,9
565,925	4247,43
566,119	7269,13
566,314	13373,06
566,508	23508,6
566,703	37678,19
566,897	53668,07
567,091	63248,53
567,286	63187,87
567,48	64232,17
567,674	64255,11
567,868	64329,25
568,063	64276,61
568,257	64318,19
568,451	57116,76
568,646	33169,92
568,84	19289,8
569,034	15067,28
569,228	12209,02
569,422	10225,85
569,616	8624,51
569,811	7443,2
570,005	6272,47
570,199	5444,46
570,393	4740,37
570,587	4156,74
570,781	3791,89
570,975	3536,11
571,169	3335,06
571,364	3198,2
571,558	3148,79
571,752	3161,51
571,946	3139,5
572,14	3194,76
572,334	3217,2
572,528	3269,32
572,722	3225,62
572,916	3331,46
573,109	3285,96
573,303	3315,81
573,497	3323,09
573,691	3318,65
573,885	3325,52
574,079	3395,32
574,273	3414,27
574,467	3455,52
574,661	3508,84
574,854	3539
575,048	3591,22
575,242	3676,11
575,436	3724,37
575,63	3834,91
575,823	3836,12
576,017	3967,49
576,211	3996,59
576,405	4067,73
576,598	4096,33
576,792	4167,2
576,986	4218,92
577,18	4280,44
577,373	4432,4
577,567	4508,3
577,761	4594,39
577,954	4719,52
578,148	4788,89
578,341	4914,19
578,535	4944,53
578,729	5098,59
578,922	5151,05
579,116	5317,75
579,309	5412,07
579,503	5612,56
579,696	5734,06
579,89	5877,35
580,083	6125,94
580,277	6701
580,47	8144,45
580,664	10884,29
580,857	14022,83
581,051	16780,07
581,244	20273,36
581,437	23548,94
581,631	24351,9
581,824	24047,07
582,018	23984,54
582,211	23096,42
582,404	20712,93
582,598	18673,69
582,791	17448,56
582,984	16199,32
583,178	15317,98
583,371	14782,09
583,564	14609,54
583,757	14876
583,951	15182,36
584,144	15786,65
584,337	16524,11
584,53	17554,52
584,723	18679,36
584,917	20233,47
585,11	21978,57
585,303	24517,44
585,496	27044,15
585,689	33559,19
585,882	63109,82
586,075	63431,54
586,268	64335,8
586,462	64330,06
586,655	64351,16
586,848	64293
587,041	64336
587,234	64321,67
587,427	64273,54
587,62	64330,88
587,813	64333,34
588,006	64297,5
588,199	64310,81
588,392	64310,81
588,585	64294,63
588,777	64272,11
588,97	64291,36
589,163	64263,92
589,356	64264,94
589,549	64283,78
589,742	64340,92
589,935	64376,14
590,128	64313,48
590,32	64282,76
590,513	64312,45
590,706	64341,12
590,899	64329,65
591,092	64277,23
591,284	64315,52
591,477	64353,41
591,67	64300,57
591,863	64311,84
592,055	64397,03
592,248	64262,28
592,441	64302,01
592,633	64340,3
592,826	64316,96
593,019	64321,05
593,211	64291,36
593,404	64373,07
593,596	64303,85
593,789	64332,52
593,982	64307,54
594,174	64349,32
594,367	64323,92
594,559	64291,97
594,752	64362,42
594,944	64325,15
595,137	64311,63
595,329	64313,89
595,522	64301,39
595,714	64322,69
595,907	64324,94
596,099	64327,4
596,292	64328,43
596,484	64330,68
596,676	64369,8
596,869	64327,4
597,061	64261,05
597,253	64363,04
597,446	64345,83
597,638	64332,52
597,83	64313,48
598,023	64271,9
598,215	64358,94
598,407	64345,01
598,6	64391,5
598,792	64309,18
598,984	64336
599,176	64317,57
599,369	64307,74
599,561	64265,96
599,753	64362,22
599,945	64294,23
600,137	64345,01
600,329	64311,43
600,522	64334,37
600,714	64368,98
600,906	64388,23
601,098	64306,31
601,29	64333,14
601,482	64338,87
601,674	64332,11
601,866	64307,95
602,058	64347,06
602,25	64311,63
602,442	64281,32
602,634	64333,14
602,826	64374,71
603,018	64363,86
603,21	64305,08
603,402	64326,58
603,594	64344,81
603,786	64335,59
603,978	64288,08
604,17	64355,46
604,362	64301,6
604,554	64320,85
604,745	64303,85
604,937	64337,03
605,129	64276,41
605,321	64372,05
605,513	64355,25
605,704	64360,58
605,896	64322,28
606,088	64341,12
606,28	64324,53
606,471	64307,13
606,663	64357,71
606,855	64392,32
607,047	64305,28
607,238	64348,5
607,43	64343,17
607,622	64311,02
607,813	64317,78
608,005	64352,39
608,197	64295,04
608,388	64353,21
608,58	64369,39
608,771	64302,42
608,963	64312,25
609,154	64333,34
609,346	64368,77
609,537	64327,81
609,729	64392,94
609,921	64312,25
610,112	64345,63
610,303	64347,88
610,495	64356,89
610,686	64324,13
610,878	64378,81
611,069	64404
611,261	64328,22
611,452	64376,35
611,643	64372,05
611,835	64366,93
612,026	64322,28
612,217	64342,15
612,409	64366,72
612,6	64339,49
612,791	64334,77
612,983	64330,47
613,174	64279,48
613,365	64351,36
613,557	64348,5
613,748	64367,75
613,939	64342,35
614,13	64380,24
614,321	64352,59
614,513	64310,81
614,704	64332,93
614,895	64367,75
615,086	64399,49
615,277	64382,7
615,468	64379,01
615,659	64314,5
615,851	64380,65
616,042	64354,64
616,233	64378,81
616,424	64380,85
616,615	64333,75
616,806	64362,42
616,997	64434,31
617,188	64406,86
617,379	64366,72
617,57	64346,86
617,761	64345,83
617,952	64330,47
618,143	64296,48
618,334	64383,31
618,524	64356,69
618,715	64388,43
618,906	64401,74
619,097	64404,41
619,288	64399,49
619,479	64337,85
619,67	64356,69
619,86	64387,41
620,051	64375,53
620,242	64346,24
620,433	64379,63
620,624	64323,1
620,814	64323,1
621,005	64333,34
621,196	64375,12
621,386	64327,2
621,577	64364,88
621,768	64299,75
621,958	64397,85
622,149	64380,65
622,34	64368,98
622,53	64364,47
622,721	64400,1
622,912	64313,68
623,102	64328,22
623,293	64335,8
623,483	64341,53
623,674	64360,58
623,864	64361,19
624,055	64407,68
624,245	64351,36
624,436	64410,96
624,626	64385,97
624,817	64362,83
625,007	64376,35
625,198	64397,65
625,388	64370,2
625,579	64302,83
625,769	64336,82
625,959	64353,62
626,15	64397,03
626,34	64380,24
626,531	64290,54
626,721	64325,15
626,911	64410,96
627,101	64368,36
627,292	64348,29
627,482	64376,14
627,672	64388,84
627,863	64385,15
628,053	64274,56
628,243	64359,15
628,433	64398,88
628,623	64332,32
628,814	64370,41
629,004	64363,04
629,194	64396,83
629,384	64375,32
629,574	64366,72
629,764	64309,99
629,955	64346,04
630,145	64350,95
630,335	64366,93
630,525	64349,11
630,715	64351,57
630,905	64325,97
631,095	64370,2
631,285	64351,98
631,475	64361,6
631,665	64257,98
631,855	64374,91
632,045	64378,4
632,235	64368,98
632,425	64371,84
632,615	64374,51
632,805	64352,39
632,994	64357,1
633,184	64334,57
633,374	64311,84
633,564	64364,88
633,754	64337,23
633,944	64342,15
634,133	50477,32
634,323	64342,56
634,513	25006,24
634,703	57832,88
634,893	6558,55
635,082	33156,4
635,272	1564,78
635,462	11322,3
635,651	1481,95
635,841	1521,38
636,031	1518,12
636,221	1485,58
636,41	1508,28
636,6	1501,88
636,789	1450,57
636,979	1484,13
637,169	1502,84
637,358	1491,07
637,548	1456,7
637,737	1430,56
637,927	1427,32
638,116	1411,69
638,306	1402,88
638,495	1374,04
638,685	1366,12
638,874	1379,55
639,064	1347,38
639,253	1365,94
639,443	1420,04
639,632	1512,28
639,822	1561,15
640,011	1594,29
640,2	1594,76
640,39	1628,89
640,579	1559,66
640,768	1524,41
640,958	1443,34
641,147	1419,13
641,336	1361,58
641,526	1325,28
641,715	1306,82
641,904	1269,4
642,093	1314,1
642,283	1235,35
642,472	1205,65
642,661	1252,37
642,85	1213,68
643,039	1247,19
643,228	1140,32
643,418	1194,15
643,607	1196,83
643,796	1175,12
643,985	1197,71
644,174	1162,34
644,363	1153,35
644,552	1201,87
644,741	1188,08
644,93	1201,27
645,119	1127,7
645,308	1188,81
645,497	1158
645,686	1144,97
645,875	1192,21
646,064	1147,14
646,253	1137,86
646,442	1146,87
646,631	1169,34
646,82	1142,15
647,009	1123,98
647,198	1101,9
647,387	1147,28
647,575	1207,05
647,764	1014,54
647,953	1341,54
648,142	1383,21
648,331	1381,1
648,519	1346
648,708	1283,71
648,897	1213,21
649,086	1175,62
649,274	1148,75
649,463	1144,62
649,652	1047,85
649,84	1082,03
650,029	1026,22
650,218	1055
650,406	1053,88
650,595	1039,75
650,784	980,89
650,972	1019,69
651,161	1016,62
651,349	1031,54
651,538	1012,57
651,726	977,27
651,915	984,53
652,104	993,1
652,292	1016,78
652,481	993,48
652,669	956,73
652,857	973,05
653,046	930,88
653,234	970,83
653,423	909,4
653,611	948,69
653,8	924,9
653,988	928,64
654,176	928,83
654,365	988,06
654,553	952,06
654,741	984,52
654,93	1035,37
655,118	1003,37
655,306	966,59
655,494	1002,84
655,683	934,14
655,871	912,7
656,059	886,31
656,247	890,56
656,436	880,7
656,624	841,22
656,812	853,68
657	853,64
657,188	827,63
657,376	869,63
657,564	854,17
657,753	865,78
657,941	857,01
658,129	836,59
658,317	849,19
658,505	900,44
658,693	864,8
658,881	874,78
659,069	856,12
659,257	844,62
659,445	840,59
659,633	826,29
659,821	828,73
660,009	775,56
660,197	798,14
660,384	792,07
660,572	724,93
660,76	787,16
660,948	768,58
661,136	777,78
661,324	751,03
661,512	742,56
661,699	786,53
661,887	729,43
662,075	744,86
662,263	739,72
662,451	755,16
662,638	740,49
662,826	714,77
663,014	705,09
663,201	688,76
663,389	732,21
663,577	717,15
663,764	692,16
663,952	742,05
664,14	719,08
664,327	732,22
664,515	699,53
664,702	709,58
664,89	708,84
665,078	745,99
665,265	747,93
665,453	767,01
665,64	840,99
665,828	907,4
666,015	939,73
666,203	993,31
666,39	993,73
666,578	979,1
666,765	914,98
666,952	788,18
667,14	780,14
667,327	759,19
667,515	730,21
667,702	691,25
667,889	699,63
668,077	661,84
668,264	619,21
668,451	629,51
668,638	646,95
668,826	632,91
669,013	622,83
669,2	601,39
669,388	577,73
669,575	585,46
669,762	625,73
669,949	585,84
670,136	242,36
670,323	557,94
670,511	601,74
670,698	585,05
670,885	553,1
671,072	554,25
671,259	540,09
671,446	563,08
671,633	552,68
671,82	571,05
672,007	565,75
672,194	537,18
672,381	544,33
672,568	511,83
672,755	552,85
672,942	565,5
673,129	688,38
673,316	831,28
673,503	908,3
673,69	1015,79
673,877	1029,24
674,064	1018,72
674,251	933,65
674,437	828,95
674,624	710,18
674,811	673,41
674,998	657,46
675,185	603,5
675,372	547,48
675,558	542,44
675,745	516,51
675,932	508,62
676,119	534,72
676,305	476,31
676,492	468,76
676,679	466,65
676,865	429,2
677,052	427,88
677,239	462,02
677,425	427,64
677,612	385,91
677,798	425,56
677,985	412,82
678,172	409,51
678,358	400,23
678,545	420,63
678,731	427,45
678,918	436,83
679,104	412,19
679,291	283,99
679,477	403,3
679,664	419,4
679,85	406,56
680,036	362,53
680,223	433,08
680,409	381,86
680,596	401,29
680,782	385,72
680,968	377,89
681,155	416,93
681,341	379,29
681,527	362,49
681,714	369,23
681,9	414,74
682,086	380,37
682,272	418,51
682,459	381,26
682,645	342,1
682,831	348,64
683,017	305,91
683,204	350,02
683,39	382,93
683,576	333,09
683,762	366,25
683,948	364,03
684,134	404,15
684,32	371,12
684,506	343,44
684,693	369,13
684,879	510,13
685,065	567,2
685,251	707,1
685,437	788,71
685,623	807,79
685,809	812,9
685,995	730,35
686,181	690,25
686,366	571,17
686,552	569,39
686,738	539,57
686,924	487,58
687,11	485,08
687,296	421,39
687,482	415,56
687,668	454,55
687,853	429,17
688,039	405,18
688,225	400,94
688,411	384,97
688,597	317,93
688,782	367,84
688,968	382,05
689,154	367,54
689,34	333,47
689,525	328,71
689,711	361,38
689,897	328,68
690,082	370,76
690,268	349,33
690,454	362,78
690,639	343,71
690,825	368,16
691,01	349,84
691,196	312,26
691,381	383,45
691,567	404,99
691,753	442,09
691,938	495,05
692,124	537,07
692,309	559,06
692,494	548,02
692,68	545,95
692,865	492,17
693,051	445,32
693,236	427,12
693,422	420,21
693,607	478,01
693,792	664,17
693,978	1601,1
694,163	5102,68
694,348	12186,26
694,534	21792,54
694,719	31089,39
694,904	36291,77
695,089	38740,79
695,275	36866,43
695,46	30942,03
695,645	23012,28
695,83	17393,72
696,016	13608,26
696,201	10430,17
696,386	7932,2
696,571	6059,12
696,756	4690,63
696,941	3780,77
697,126	3160,18
697,311	2726,64
697,497	2290,7
697,682	2013,09
697,867	1666,27
698,052	1403,83
698,237	1107,96
698,422	909,39
698,607	710,21
698,792	584,82
698,977	457,81
699,162	383,34
699,347	328,3
699,531	367,48
699,716	344,64
699,901	354,69
700,086	299,27
700,271	305,68
700,456	307,33
700,641	360,09
700,825	471,41
701,01	492,86
701,195	597,53
701,38	673,54
701,565	661,08
701,749	656,18
701,934	609,63
702,119	464,52
702,303	465,29
702,488	412,38
702,673	340,37
702,857	340,71
703,042	337,42
703,227	322,75
703,411	354,03
703,596	304,67
703,78	357,95
703,965	486,86
704,15	1080,99
704,334	3163,56
704,519	7419,05
704,703	13058,3
704,888	18296,88
705,072	21561,37
705,257	22907,53
705,441	21944,61
705,625	18141,72
705,81	13586,8
705,994	10202,08
706,179	7949,08
706,363	6172,9
706,547	4743,31
706,732	3545,19
706,916	2864,38
707,1	2338,96
707,285	1963,68
707,469	1635,2
707,653	1414,43
707,837	1245,95
708,022	995,65
708,206	773,64
708,39	680,5
708,574	539,74
708,759	439,68
708,943	390,68
709,127	375,56
709,311	364,72
709,495	334,1
709,679	312,34
709,863	286,66
710,047	283,64
710,231	284,52
710,415	331,45
710,6	270,74
710,784	304,59
710,968	292,43
711,152	294,87
711,336	302,26
711,519	253,68
711,703	308,39
711,887	278,74
712,071	319,92
712,255	488,91
712,439	808,53
712,623	1382,83
712,807	1955,58
712,991	2344,81
713,174	2591,6
713,358	2548,39
713,542	2247,34
713,726	1780,94
713,91	1350,6
714,093	1119,6
714,277	953,25
714,461	777,73
714,645	701,3
714,828	597,4
715,012	512,87
715,196	491,3
715,379	379,75
715,563	383,55
715,747	349,77
715,93	354,18
716,114	335,4
716,297	324,91
716,481	324,72
716,664	301,41
716,848	311,03
717,031	295,56
717,215	327,37
717,398	267,33
717,582	276,5
717,765	248,48
717,949	284,85
718,132	274,28
718,316	309,35
718,499	316,93
718,682	293,93
718,866	352,92
719,049	346,07
719,233	377,01
719,416	346,34
719,599	307,33
719,782	323,83
719,966	314,26
720,149	303,08
720,332	258,98
720,515	294,59
720,699	254,84
720,882	266,67
721,065	277,42
721,248	227,63
721,431	239,58
721,615	284,36
721,798	218,62
721,981	261,03
722,164	244,85
722,347	223,7
722,53	188,34
722,713	272,94
722,896	241,18
723,079	265,58
723,262	228
723,445	243,12
723,628	274,56
723,811	260,51
723,994	230,34
724,177	278,53
724,36	273,35
724,543	360,01
724,726	599,91
724,909	1462,48
725,091	3121,21
725,274	5159,02
725,457	6876,46
725,64	7972,41
725,823	8444,04
726,006	7960,21
726,188	6635,43
726,371	4931,74
726,554	3798,6
726,737	3049,33
726,919	2418,72
727,102	1927,51
727,285	1543,08
727,467	1251,62
727,65	1037,02
727,833	879,68
728,015	695,37
728,198	576,8
728,38	473,2
728,563	401,87
728,746	353,92
728,928	332,21
729,111	353,3
729,293	343,99
729,476	346,86
729,658	373,24
729,841	365,87
730,023	302,61
730,205	354,26
730,388	298,1
730,57	309,92
730,753	288,35
730,935	267,81
731,117	234,36
731,3	301,14
731,482	294,11
731,664	292,41
731,847	297,41
732,029	283,07
732,211	278,12
732,394	338,05
732,576	301,71
732,758	254,81
732,94	311,08
733,122	325,78
733,305	346,87
733,487	417,81
733,669	440,12
733,851	470,84
734,033	445,13
734,215	373,39
734,397	367,04
734,58	349,99
734,762	400,55
734,944	417,67
735,126	607,26
735,308	677,34
735,49	866,33
735,672	1212,79
735,854	2797,57
736,036	7388,88
736,218	15426,56
736,399	25176,49
736,581	33410,71
736,763	37807,26
736,945	39179,28
737,127	36183,65
737,309	29098,87
737,491	21438,04
737,672	16657,21
737,854	13171,08
738,036	10363,46
738,218	8019,54
738,4	6235,48
738,581	4688,77
738,763	3466,26
738,945	2473,55
739,127	1737,33
739,308	1267,26
739,49	914,62
739,672	692,13
739,853	525,19
740,035	477,63
740,216	397,68
740,398	344,76
740,58	343,31
740,761	320,83
740,943	322,6
741,124	351,08
741,306	359,35
741,487	371,17
741,669	390,7
741,85	445,82
742,032	403,18
742,213	397,02
742,394	385,19
742,576	333,67
742,757	292,87
742,939	296,38
743,12	301,6
743,301	294,24
743,483	299,6
743,664	322,86
743,845	282,33
744,027	297,61
744,208	301,19
744,389	296,9
744,57	358,55
744,752	310,18
744,933	344,37
745,114	384,7
745,295	387,08
745,476	367,53
745,657	392,37
745,839	401,95
746,02	343,86
746,201	329,42
746,382	350,5
746,563	309,43
746,744	376,85
746,925	402,8
747,106	375,7
747,287	391,66
747,468	450,94
747,649	747,38
747,83	2076,98
748,011	5818,56
748,192	12504,37
748,373	20285,22
748,554	26857,84
748,735	30769,46
748,915	33527,42
749,096	35454,63
749,277	37046,1
749,458	39075,07
749,639	42099,6
749,82	42730,34
750	41393,59
750,181	36683,16
750,362	29276,92
750,543	21231,19
750,723	16088,54
750,904	12351,48
751,085	9397,84
751,265	7020,68
751,446	5066,46
751,627	3440,96
751,807	2283,21
751,988	1565,46
752,169	1094,6
752,349	829,06
752,53	665,63
752,71	579,52
752,891	472,18
753,071	439,3
753,252	451,32
753,432	407,76
753,613	367,67
753,793	338,21
753,974	348,92
754,154	331,31
754,334	328,17
754,515	344,81
754,695	334,22
754,876	302,89
755,056	287,58
755,236	342,79
755,417	325,28
755,597	295,2
755,777	338,04
755,957	314,91
756,138	350,97
756,318	330,41
756,498	362,52
756,678	413,39
756,859	429,19
757,039	481,09
757,219	506,19
757,399	555,21
757,579	550,06
757,759	573,58
757,939	552,35
758,119	481,57
758,3	424,85
758,48	420,99
758,66	456,16
758,84	466,32
759,02	420,63
759,2	469
759,38	494,08
759,56	471,8
759,74	546,42
759,919	584,64
760,099	587,37
760,279	690,65
760,459	846,36
760,639	1381,59
760,819	3946,3
760,999	14514,77
761,178	42634,89
761,358	62273,1
761,538	62713,63
761,718	64040,78
761,898	64362,38
762,077	64543,87
762,257	64512,13
762,437	64503,53
762,616	64509,67
762,796	64509,06
762,976	64500,46
763,155	64508,65
763,335	64481,82
763,515	64474,65
763,694	64474,45
763,874	64520,53
764,053	64484,69
764,233	64456,83
764,413	64531,99
764,592	64465,23
764,772	64455,2
764,951	64465,23
765,131	64499,84
765,31	64474,04
765,489	58683,69
765,669	48519,07
765,848	43275,24
766,028	40086,92
766,207	37778,91
766,386	35416,98
766,566	14571,99
766,745	3968,72
766,924	2308,2
767,104	1850,37
767,283	2441,24
767,462	5431,59
767,642	11783,27
767,821	19870,11
768	27862,72
768,179	32576,2
768,358	35295,46
768,538	33998,92
768,717	29064,94
768,896	21833,11
769,075	16028,12
769,254	12159,46
769,433	8585,36
769,612	6380,28
769,791	6220,26
769,97	10785,32
770,149	21485,53
770,328	35976,35
770,507	49417,04
770,686	55808,26
770,865	58417,15
771,044	58134,44
771,223	54000,3
771,402	42353,19
771,581	29192,36
771,76	20812,32
771,939	14059,93
772,118	9741,38
772,297	6510,03
772,475	4272,1
772,654	2830,85
772,833	1883,62
773,012	1288,43
773,191	981,68
773,369	739,25
773,548	587,79
773,727	606,92
773,906	448,34
774,084	442,66
774,263	423,04
774,442	372,58
774,62	389,36
774,799	373,5
774,977	327,2
775,156	314,85
775,335	308,31
775,513	337,42
775,692	337,55
775,87	226,44
776,049	333,89
776,227	269,57
776,406	255,25
776,584	291,23
776,763	283,35
776,941	317,27
777,119	315,92
777,298	297,63
777,476	254,34
777,655	301,05
777,833	361,57
778,011	403,38
778,19	429,72
778,368	424,4
778,546	433,74
778,725	383,77
778,903	399,03
779,081	354,56
779,259	317,65
779,437	316,3
779,616	286,9
779,794	278,27
779,972	220,72
780,15	257,53
780,328	265,03
780,506	242,6
780,685	269,19
780,863	266,45
781,041	276,3
781,219	224,66
781,397	201,63
781,575	265,33
781,753	254,12
781,931	273,49
782,109	243,34
782,287	250,35
782,465	227,11
782,643	239,73
782,82	240,22
782,998	192,16
783,176	215,11
783,354	256,79
783,532	244,52
783,71	262,69
783,888	248,74
784,065	271,32
784,243	258,86
784,421	269,4
784,599	243,59
784,776	264,06
784,954	267,19
785,132	261,54
785,31	293,31
785,487	247,03
785,665	262,89
785,842	234,83
786,02	169,9
786,198	246,1
786,375	248,92
786,553	212,21
786,73	269,74
786,908	270,09
787,085	272,83
787,263	307,28
787,44	300,26
787,618	287,97
787,795	322,75
787,973	304,8
788,15	294,1
788,328	271,71
788,505	256,1
788,682	284,79
788,86	311,33
789,037	301,99
789,215	298,23
789,392	308,31
789,569	271,08
789,746	250,18
789,924	288,24
790,101	266,88
790,278	257,53
790,455	290,68
790,633	254,16
790,81	260,64
790,987	306,2
791,164	294,15
791,341	294,59
791,518	321,23
791,695	317,24
791,873	386,18
792,05	659,3
792,227	1778,37
792,404	5275,15
792,581	12049,05
792,758	20057,39
792,935	27837,72
793,112	31661,07
793,289	32902,38
793,466	30004,42
793,643	23474,21
793,82	15547,39
793,996	9894,8
794,173	6914,61
794,35	4859,23
794,527	3613,48
794,704	2748,04
794,881	2142,97
795,057	1613,75
795,234	1237,85
795,411	922,18
795,588	778,93
795,765	662,91
795,941	565,77
796,118	506,22
796,295	425,48
796,471	463,23
796,648	440,28
796,825	384,95
797,001	381,39
797,178	386,97
797,354	377,84
797,531	415,1
797,708	476,79
797,884	668,69
798,061	1578,4
798,237	4048,99
798,414	8062,08
798,59	12884,93
798,767	16794,47
798,943	20521,18
799,119	25256,92
799,296	30675,51
799,472	34592,66
799,649	36546,41
799,825	36460,46
800,001	34824,46
800,178	29069,24
800,354	21036,82
800,53	13316,42
800,707	8929,08
800,883	6409,98
801,059	4623,91
801,235	3520,25
801,411	2801,02
801,588	2169,77
801,764	1628,15
801,94	1309,94
802,116	980,36
802,292	867,1
802,468	707,13
802,645	627,87
802,821	573,33
802,997	536,92
803,173	522,35
803,349	520,49
803,525	504,85
803,701	516,71
803,877	512
804,053	464,24
804,229	484,23
804,405	461,04
804,581	452,47
804,756	482,29
804,932	493,52
805,108	481,55
805,284	517,74
805,46	522,21
805,636	555,34
805,812	556,4
805,987	576,75
806,163	569,79
806,339	513,37
806,515	593,48
806,69	594,47
806,866	550,27
807,042	596,06
807,217	615,98
807,393	718,31
807,569	1015,14
807,744	2364,31
807,92	6602,39
808,096	15054,23
808,271	25475,42
808,447	34403,74
808,622	39207,11
808,798	41422,59
808,973	44843,18
809,149	53935,25
809,324	61689,08
809,5	62796,47
809,675	63554,85
809,851	64275,32
810,026	64413,54
810,201	64520,12
810,377	64519,3
810,552	64543,46
810,728	64502,5
810,903	64511,1
811,078	62647,36
811,253	49879,72
811,429	37181,66
811,604	35680,48
811,779	21790,97
811,955	5239,42
812,13	3343,86
812,305	2501,92
812,48	1958,56
812,655	1533,67
812,83	1292,15
813,006	1159
813,181	1084,27
813,356	1051,72
813,531	1080,41
813,706	1038,46
813,881	1052
814,056	1086,58
814,231	1069,13
814,406	1021,4
814,581	1074
814,756	1096,49
814,931	1102,92
815,106	1153,08
815,281	1269,77
815,456	1764,48
815,631	4305
815,805	13433,99
815,98	33611,83
816,155	59995,76
816,33	62250,13
816,505	63022,26
816,68	63902,53
816,854	64378,51
817,029	64544,28
817,204	64556,77
817,379	64539,16
817,553	64530,77
817,728	64563,74
817,903	64520,12
818,077	64482,64
818,252	64523,6
818,427	64525,24
818,601	64477,93
818,776	64549,81
818,95	64537,93
819,125	64506,6
819,299	64539,37
819,474	64507,62
819,648	64530,15
819,823	64479,98
819,997	64502,3
820,172	64563,74
820,346	64541,82
820,521	64532,4
820,695	64563,74
820,87	64524,62
821,044	64541,21
821,218	64479,77
821,393	64475,66
821,567	52973,01
821,741	16771
821,916	1903,2
822,09	825,72
822,264	769,02
822,438	779,04
822,613	727,39
822,787	697,06
822,961	691
823,135	651,94
823,309	661,21
823,483	739,42
823,658	973,46
823,832	1953,93
824,006	4576,28
824,18	8948,53
824,354	13944,39
824,528	18243,16
824,702	20126,82
824,876	20246,26
825,05	17910,06
825,224	13857,31
825,398	9340,84
825,572	6297,72
825,746	4806,64
825,92	3853,14
826,093	3096,74
826,267	2566,23
826,441	2128,07
826,615	1702,91
826,789	1388,75
826,963	1075,23
827,136	871,69
827,31	711,66
827,484	618,21
827,658	538,12
827,831	498,53
828,005	443,02
828,179	476,16
828,353	403,62
828,526	397,3
828,7	410,09
828,873	417,06
829,047	405,52
829,221	369,5
829,394	380,4
829,568	377,45
829,741	352,17
829,915	327,28
830,088	302,73
830,262	327,75
830,435	363,1
830,609	348,87
830,782	350,58
830,956	367,81
831,129	356,09
831,302	359,9
831,476	350,04
831,649	354,99
831,822	310,86
831,996	308,61
832,169	289,8
832,342	355,68
832,516	286,76
832,689	348,87
832,862	303,63
833,035	284,43
833,209	304,31
833,382	309,95
833,555	331,77
833,728	351,55
833,901	328,52
834,074	296,52
834,247	312,91
834,42	308,95
834,594	343,69
834,767	286,8
834,94	336,27
835,113	290,82
835,286	347,5
835,459	328,79
835,632	377,07
835,805	362,31
835,977	363,16
836,15	340,75
836,323	405,19
836,496	385,67
836,669	409,19
836,842	414,25
837,015	394,98
837,188	449,71
837,36	422,44
837,533	481,87
837,706	543,9
837,879	663,16
838,051	1202,88
838,224	2585,93
838,397	5587,36
838,569	10267,47
838,742	15813,78
838,915	19963,41
839,087	22225,58
839,26	21896,5
839,433	19526,68
839,605	15937,67
839,778	12607,56
839,95	11931,82
840,123	15039,54
840,295	20898,08
840,468	26816,41
840,64	30797,07
840,813	31534,38
840,985	29534,16
841,158	24808,27
841,33	18612,96
841,502	12729,35
841,675	9087,18
841,847	7132,98
842,019	5841,45
842,192	4708,4
842,364	3789,23
842,536	3161,66
842,709	2516,21
842,881	1968,72
843,053	1534,25
843,225	1116,97
843,398	827,04
843,57	657,93
843,742	578,75
843,914	459,01
844,086	420,27
844,258	422,24
844,43	381,56
844,602	324,85
844,775	377,51
844,947	312,86
845,119	364,82
845,291	296,98
845,463	297,23
845,635	336,84
845,807	308,48
845,979	290,68
846,15	317,7
846,322	299,01
846,494	304,23
846,666	292,19
846,838	285,75
847,01	292,93
847,182	283,73
847,354	271
847,525	287,7
847,697	279,15
847,869	318,61
848,041	298,9
848,212	270,91
848,384	323,02
848,556	297,31
848,727	317,07
848,899	329,18
849,071	328,87
849,242	394,06
849,414	557,55
849,585	996,05
849,757	1801,69
849,929	3068,89
850,1	4621,61
850,272	5918,36
850,443	6695,77
850,615	6687,35
850,786	6090,15
850,958	5097,45
851,129	3857,19
851,3	2753,8
851,472	2145,21
851,643	1797,51
851,815	1550,35
851,986	1281,33
852,157	1070,55
852,329	862,98
852,5	799,33
852,671	615,47
852,842	512,43
853,014	444,81
853,185	343,06
853,356	319,67
853,527	299,85
853,698	277,56
853,87	290,14
854,041	225,3
854,212	257,28
854,383	257,93
854,554	277,92
854,725	193,26
854,896	229,57
855,067	230,03
855,238	240,11
855,409	253,25
855,58	241,23
855,751	207,99
855,922	237,5
856,093	210,12
856,264	292,21
856,435	268,25
856,606	251,44
856,777	231,82
856,948	262,62
857,118	252,15
857,289	251,72
857,46	204,27
857,631	243,03
857,802	214,65
857,972	229,95
858,143	225,22
858,314	280,74
858,484	275,46
858,655	255,96
858,826	233,46
858,996	260,61
859,167	211,86
859,338	250,27
859,508	217,35
859,679	255,44
859,849	233,12
860,02	229,51
860,19	219,74
860,361	222,47
860,531	230,47
860,702	144,82
860,872	172,5
861,043	217,55
861,213	154,79
861,384	219,3
861,554	248,16
861,724	261,71
861,895	204,11
862,065	161,19
862,235	187,43
862,406	220,17
862,576	235,42
862,746	194,08
862,916	215,71
863,087	159,82
863,257	206,19
863,427	239,53
863,597	212,89
863,767	208,15
863,937	271,95
864,108	230,14
864,278	296,4
864,448	329,32
864,618	440,17
864,788	661,74
864,958	797,98
865,128	948,58
865,298	1038,06
865,468	1016,15
865,638	1012,72
865,808	858,8
865,978	666,8
866,148	593,95
866,318	489,74
866,487	384,81
866,657	380,59
866,827	318,28
866,997	340,34
867,167	259,03
867,337	270,31
867,506	237,76
867,676	243,89
867,846	215,66
868,016	191,83
868,185	198,46
868,355	164,95
868,525	161,19
868,694	178,47
868,864	141,32
869,034	177,74
869,203	152,62
869,373	178,15
869,542	140,88
869,712	161,96
869,881	157,66
870,051	200,02
870,22	181,29
870,39	198,32
870,559	197,1
870,729	229,27
870,898	176,12
871,068	140,12
871,237	185,45
871,406	169,6
871,576	168,76
871,745	187,89
871,914	196,76
872,084	153,81
872,253	163,75
872,422	196,38
872,591	166,89
872,761	198,06
872,93	-14,55
873,099	197,86
873,268	145,15
873,437	177,51
873,607	174,72
873,776	163,64
873,945	148,36
874,114	193,73
874,283	139,11
874,452	166,79
874,621	139,84
874,79	130,54
874,959	160,02
875,128	154,02
875,297	145,21
875,466	129,77
875,635	137,49
875,804	143,97
875,973	177,62
876,142	96,77
876,31	152,87
876,479	136,88
876,648	121,6
876,817	153,14
876,986	108,95
877,155	128,36
877,323	160,84
877,492	113,4
877,661	105,64
877,829	132,8
877,998	147,18
878,167	139,19
878,335	153,31
878,504	169,2
878,673	151,47
878,841	182,67
879,01	149,31
879,178	144,88
879,347	134,14
879,515	132,17
879,684	101,02
879,852	140,6
880,021	128,18
880,189	124,75
880,358	127,58
880,526	19,09
880,695	172,89
880,863	84,01
881,031	133,59
881,2	100,68
881,368	145,32
881,536	85,08
881,705	141,41
881,873	120,84
882,041	106,06
882,21	102,79
882,378	98,57
882,546	136,91
882,714	116,24
882,882	146,6
883,05	80,62
883,219	122,24
883,387	131,76
883,555	153,26
883,723	123,49
883,891	106,16
884,059	138,78
884,227	112,55
884,395	100,57
884,563	125,38
884,731	111,83
884,899	97,68
885,067	128,04
885,235	113,47
885,403	94,83
885,571	103,09
885,739	110,27
