Data from Subt18__2__10-33-13-357.txt Node

Date: Mon Feb 19 10:33:13 CET 2024
User: Versuch 234
Spectrometer: USB4F03543
Trigger mode: 4
Integration Time (sec): 3,000000E-2
Scans to average: 130
Electric dark correction enabled: true
Nonlinearity correction enabled: false
Boxcar width: 0
XAxis mode: Wavelengths
Number of Pixels in Spectrum: 3648
>>>>>Begin Spectral Data<<<<<
179,969	91,6
180,181	91,6
180,394	91,6
180,606	91,13
180,819	107,09
181,031	-18,48
181,243	-28,53
181,456	9,62
181,668	12,05
181,88	-30,22
182,093	4,41
182,305	29,5
182,518	36,01
182,73	-33,51
182,942	-3,64
183,155	16,44
183,367	6,35
183,579	-11,23
183,791	5,57
184,004	74,29
184,216	65,08
184,428	66,9
184,641	59,18
184,853	95,64
185,065	88,14
185,277	66,78
185,49	49,61
185,702	105,17
185,914	85,73
186,126	46,39
186,338	68,21
186,551	58,11
186,763	60,48
186,975	93,87
187,187	61,25
187,399	73,52
187,612	41,6
187,824	69,33
188,036	56,06
188,248	61,91
188,46	70,12
188,672	65,6
188,885	83,7
189,097	32,17
189,309	90,85
189,521	71,01
189,733	73,99
189,945	64,67
190,157	42,72
190,369	99,8
190,581	72,56
190,794	53,54
191,006	90,88
191,218	73,82
191,43	57,31
191,642	86,23
191,854	71,68
192,066	36,5
192,278	73,72
192,49	81,19
192,702	86,82
192,914	84,37
193,126	102,93
193,338	59,36
193,55	83,73
193,762	67,34
193,974	119,03
194,186	96,22
194,398	86,83
194,61	64,62
194,822	74,73
195,034	55,81
195,246	55,45
195,457	111,63
195,669	58,6
195,881	84,93
196,093	121,36
196,305	113,58
196,517	132,49
196,729	83,66
196,941	109,2
197,153	48,52
197,365	48,79
197,576	110,71
197,788	118,86
198	55,86
198,212	31,88
198,424	58,74
198,636	107,89
198,847	67,9
199,059	82,22
199,271	102,19
199,483	57,23
199,695	78,77
199,906	67,14
200,118	91,87
200,33	70,62
200,542	-92,82
200,753	78,84
200,965	76,64
201,177	57,07
201,389	69,5
201,6	104,73
201,812	77,65
202,024	74,09
202,235	80,51
202,447	21,63
202,659	19,74
202,871	60,77
203,082	71,8
203,294	79,46
203,506	64,41
203,717	85,65
203,929	65,74
204,141	91,84
204,352	39,48
204,564	82,39
204,775	76,53
204,987	19,64
205,199	68,84
205,41	91,35
205,622	40,42
205,833	98,88
206,045	54,77
206,257	57,25
206,468	101,99
206,68	93,62
206,891	79,98
207,103	113,72
207,314	92,19
207,526	56,79
207,737	75,87
207,949	83,41
208,16	70,13
208,372	68,53
208,583	48,79
208,795	81,71
209,006	73,31
209,218	98,44
209,429	89,3
209,641	92,05
209,852	87,84
210,064	61,63
210,275	84,14
210,487	65,3
210,698	33,8
210,909	75,9
211,121	53,18
211,332	86,04
211,544	37,05
211,755	45,89
211,966	51,23
212,178	67,91
212,389	12,98
212,6	86,08
212,812	40,86
213,023	73,08
213,234	63,96
213,446	55,2
213,657	78,62
213,868	36,26
214,08	49,24
214,291	55,15
214,502	61,39
214,714	89,46
214,925	75,95
215,136	88,19
215,347	95,16
215,559	110,92
215,77	75,61
215,981	40,12
216,192	106,3
216,404	56,74
216,615	56,95
216,826	81,05
217,037	79,13
217,249	68,23
217,46	46,96
217,671	71,91
217,882	71,47
218,093	72,05
218,304	91,87
218,516	70,51
218,727	88,42
218,938	81,6
219,149	17,45
219,36	83,76
219,571	58,74
219,782	69,61
219,993	45,46
220,205	114,57
220,416	45,01
220,627	66,76
220,838	50,88
221,049	6,99
221,26	29,55
221,471	97,07
221,682	66,75
221,893	37,96
222,104	115,47
222,315	120,21
222,526	105,56
222,737	62,08
222,948	62,19
223,159	64,22
223,37	66,19
223,581	86,75
223,792	94,06
224,003	92,55
224,214	98,02
224,425	74,43
224,636	88,56
224,847	64,59
225,058	78,7
225,269	92,74
225,48	85,37
225,691	91,73
225,902	51,4
226,112	78,75
226,323	102,11
226,534	96,17
226,745	102,62
226,956	105,42
227,167	86,36
227,378	54,14
227,589	103,04
227,799	50,09
228,01	63,04
228,221	115,57
228,432	91,68
228,643	107,89
228,853	105,2
229,064	122,26
229,275	85,13
229,486	132,85
229,697	142,13
229,907	142,52
230,118	116,01
230,329	137,84
230,54	114,34
230,75	55,06
230,961	71,93
231,172	89,23
231,383	110,07
231,593	90,88
231,804	60,35
232,015	89,01
232,225	65,78
232,436	71,53
232,647	52,96
232,857	65,15
233,068	86,97
233,279	75,24
233,489	87,56
233,7	74,56
233,91	108,98
234,121	78,06
234,332	96,5
234,542	118,13
234,753	119,76
234,964	92,79
235,174	110,89
235,385	98,33
235,595	106,87
235,806	69,57
236,016	124,94
236,227	107,66
236,437	128,53
236,648	115,09
236,858	134,28
237,069	144,39
237,279	142,49
237,49	130,85
237,7	116,78
237,911	109,6
238,121	156,16
238,332	121,8
238,542	115,33
238,753	134,58
238,963	138,2
239,174	128,28
239,384	136,88
239,595	150,6
239,805	147,42
240,015	146,43
240,226	127,55
240,436	118,2
240,647	127,77
240,857	142,05
241,067	140,08
241,278	59,69
241,488	144,44
241,698	105,92
241,909	138,96
242,119	136,39
242,329	115,14
242,54	114,48
242,75	129,21
242,96	144,69
243,171	142,25
243,381	123,46
243,591	156,7
243,801	118,32
244,012	88,86
244,222	141,39
244,432	179,94
244,642	143,78
244,853	165,8
245,063	159,57
245,273	136,3
245,483	139,34
245,694	145,36
245,904	144,58
246,114	135,9
246,324	178,99
246,534	164,67
246,744	158,15
246,955	201,77
247,165	126,67
247,375	127,43
247,585	163,68
247,795	167,62
248,005	149,75
248,215	121,1
248,425	155,94
248,636	105,75
248,846	200,7
249,056	157,27
249,266	175,43
249,476	171,85
249,686	159,96
249,896	192,1
250,106	165,73
250,316	188,14
250,526	120,4
250,736	194,43
250,946	133,02
251,156	131,7
251,366	172,5
251,576	169,24
251,786	153,82
251,996	206,26
252,206	186,57
252,416	164,24
252,626	192,52
252,836	190,29
253,046	168,5
253,256	166,78
253,466	184,35
253,676	164,72
253,885	150,44
254,095	158,95
254,305	154,95
254,515	158,89
254,725	173,68
254,935	182,53
255,145	162,1
255,355	141,29
255,564	168,43
255,774	155,14
255,984	128,31
256,194	131,65
256,404	178,33
256,614	125,95
256,823	136,01
257,033	181,38
257,243	144,9
257,453	161,08
257,662	168,25
257,872	155,04
258,082	156,38
258,292	187,94
258,501	95,42
258,711	79,33
258,921	106,22
259,131	182,98
259,34	166,13
259,55	140,02
259,76	154,23
259,969	152,13
260,179	176,58
260,389	133,97
260,598	125,44
260,808	136,2
261,018	152,71
261,227	121,5
261,437	172,75
261,647	116,12
261,856	158,31
262,066	132,99
262,275	113,23
262,485	143,13
262,694	127,76
262,904	138,9
263,114	124,28
263,323	158,21
263,533	168,62
263,742	152,89
263,952	156,21
264,161	162,21
264,371	151,5
264,58	161,58
264,79	154,67
264,999	156,67
265,209	129,16
265,418	136,6
265,628	144,49
265,837	116,32
266,047	135,64
266,256	96,05
266,466	170,04
266,675	180,71
266,884	154,79
267,094	148,59
267,303	91,53
267,513	142,03
267,722	116,07
267,931	116,23
268,141	160,43
268,35	135,57
268,559	121,08
268,769	149,07
268,978	165,14
269,187	118,28
269,397	158,9
269,606	173,33
269,815	154
270,025	118,46
270,234	96,83
270,443	158,07
270,653	128,99
270,862	121,82
271,071	142,54
271,28	141,01
271,49	149,44
271,699	161,91
271,908	121,95
272,117	129,24
272,327	150,43
272,536	131,16
272,745	141,26
272,954	150,6
273,163	115,8
273,372	91,04
273,582	146,29
273,791	132,41
274	155,91
274,209	147,48
274,418	111,71
274,627	78,88
274,836	138,9
275,046	105,23
275,255	110,08
275,464	123,03
275,673	138,16
275,882	87,6
276,091	113,69
276,3	93,65
276,509	95,53
276,718	90,01
276,927	109,47
277,136	82,55
277,345	88,53
277,554	73,8
277,763	63,77
277,972	81,22
278,181	88,28
278,39	111,45
278,599	67,97
278,808	107,88
279,017	80,84
279,226	124,69
279,435	94,85
279,644	87,46
279,853	77,99
280,062	33,22
280,271	92
280,48	111,41
280,688	94,05
280,897	53,73
281,106	101,7
281,315	109,74
281,524	93,83
281,733	81,6
281,942	98,33
282,151	74,72
282,359	65,58
282,568	120,26
282,777	94,28
282,986	117,41
283,195	101,26
283,403	109,39
283,612	152,82
283,821	194,22
284,03	200,68
284,238	215,84
284,447	168,62
284,656	151,25
284,865	106,32
285,073	118,98
285,282	94,98
285,491	101,78
285,699	99,86
285,908	83,84
286,117	112,27
286,325	78,1
286,534	47,4
286,743	92,72
286,951	79,03
287,16	68,79
287,369	106,52
287,577	60,22
287,786	116,75
287,995	104,54
288,203	80,64
288,412	89,1
288,62	76,2
288,829	103,85
289,037	123,02
289,246	80,55
289,455	84,69
289,663	60,62
289,872	60,41
290,08	64,59
290,289	53,42
290,497	110,04
290,706	66,46
290,914	111,5
291,123	119,79
291,331	103,34
291,54	58,16
291,748	51,34
291,957	89,71
292,165	105,78
292,373	125,03
292,582	87,21
292,79	79,92
292,999	82,42
293,207	72,39
293,415	88,5
293,624	138
293,832	99,58
294,041	76,59
294,249	96,54
294,457	110,24
294,666	94,99
294,874	127,16
295,082	67,6
295,291	74,12
295,499	85,67
295,707	101,43
295,915	81,77
296,124	62,89
296,332	93,43
296,54	105,66
296,749	64,68
296,957	74,8
297,165	102,3
297,373	102,24
297,581	93,94
297,79	93,94
297,998	110,02
298,206	123,77
298,414	104,43
298,622	65,12
298,831	65,74
299,039	115,53
299,247	76,36
299,455	103,73
299,663	58,18
299,871	118,4
300,08	75,35
300,288	89,15
300,496	110,52
300,704	96,58
300,912	96,69
301,12	93,32
301,328	99,83
301,536	89,6
301,744	106,26
301,952	79,33
302,16	127,35
302,368	84,26
302,576	104,16
302,784	83,33
302,992	98,57
303,2	107,91
303,408	114,23
303,616	147,12
303,824	143,76
304,032	179,57
304,24	178,36
304,448	206,51
304,656	202,49
304,864	137,29
305,072	107,52
305,28	110,38
305,488	118,78
305,696	74,92
305,904	93,95
306,111	139,54
306,319	115,96
306,527	76,73
306,735	105,63
306,943	72,65
307,151	115,57
307,359	118,18
307,566	62,43
307,774	55,09
307,982	72,73
308,19	125,92
308,398	115,01
308,605	118,78
308,813	122,37
309,021	118,56
309,229	83,38
309,436	125,59
309,644	63,06
309,852	89,24
310,06	53,59
310,267	106
310,475	86,39
310,683	67,74
310,89	75,54
311,098	55,69
311,306	112,68
311,513	101,95
311,721	95,35
311,929	82,22
312,136	118,78
312,344	78,97
312,552	63,75
312,759	115,08
312,967	89,46
313,174	76,87
313,382	82,45
313,589	88,17
313,797	68,92
314,005	97,31
314,212	96,09
314,42	127,93
314,627	112,51
314,835	95,68
315,042	94,17
315,25	137,29
315,457	110,73
315,665	150,33
315,872	78,62
316,08	85,87
316,287	119,24
316,495	-56,86
316,702	129,9
316,909	126,22
317,117	60
317,324	100,21
317,532	76,89
317,739	134,12
317,946	109,56
318,154	92,35
318,361	135,27
318,569	98,28
318,776	124,64
318,983	150,92
319,191	119,02
319,398	101,43
319,605	124,29
319,813	73,33
320,02	156,08
320,227	94,53
320,434	80,5
320,642	122,54
320,849	117,66
321,056	106,81
321,264	108,84
321,471	120,58
321,678	88
321,885	146,74
322,092	90,16
322,3	114,37
322,507	137,98
322,714	100,21
322,921	125,92
323,128	136,44
323,336	123,14
323,543	92,38
323,75	101,09
323,957	104,4
324,164	98,63
324,371	119
324,578	155,26
324,786	82,15
324,993	127,95
325,2	113,11
325,407	165,63
325,614	107,14
325,821	74,98
326,028	58,14
326,235	111,67
326,442	89,21
326,649	152,63
326,856	109,67
327,063	169,62
327,27	116,65
327,477	160,75
327,684	172,47
327,891	180,82
328,098	133,08
328,305	188,16
328,512	324,46
328,719	549,72
328,926	1052,37
329,133	2247,82
329,34	4383,36
329,546	8638,49
329,753	12825,53
329,96	15347,84
330,167	15164,12
330,374	13971,18
330,581	10125,33
330,788	5435,31
330,995	2851,32
331,201	1609,04
331,408	912,97
331,615	584,02
331,822	359,24
332,029	258,61
332,235	184,2
332,442	170,88
332,649	171,46
332,856	166,89
333,062	135,73
333,269	134,36
333,476	136,55
333,683	145,7
333,889	122,62
334,096	143,4
334,303	117,55
334,509	138,58
334,716	126,67
334,923	133,1
335,129	150,51
335,336	111,61
335,543	136,61
335,749	145,7
335,956	101,88
336,163	174,91
336,369	102,11
336,576	134,28
336,782	135,46
336,989	160,89
337,196	136,75
337,402	167,98
337,609	142,88
337,815	153,71
338,022	113,33
338,228	113,2
338,435	67,97
338,641	100,52
338,848	110,3
339,054	109,31
339,261	165,69
339,467	171,79
339,674	140,19
339,88	138,69
340,087	126,06
340,293	145,7
340,5	152,67
340,706	123,9
340,912	164,47
341,119	174,18
341,325	163,9
341,532	136,64
341,738	164,64
341,944	153
342,151	167,87
342,357	159,57
342,563	143,5
342,77	134
342,976	149,15
343,182	88,67
343,389	164,23
343,595	160,13
343,801	168,51
344,007	121,98
344,214	163,17
344,42	161,63
344,626	149,17
344,832	160,94
345,039	127,35
345,245	164,39
345,451	182,46
345,657	152,87
345,864	159,11
346,07	173,73
346,276	152,9
346,482	131,32
346,688	137,15
346,894	188,9
347,1	155,12
347,307	138,22
347,513	123,84
347,719	141,62
347,925	126,33
348,131	186,72
348,337	104,29
348,543	171
348,749	161,13
348,955	117,66
349,161	166,18
349,367	152,35
349,573	137,07
349,779	137,42
349,985	153,03
350,191	133,73
350,397	143,4
350,603	141,87
350,809	166,06
351,015	128,11
351,221	157,22
351,427	139,21
351,633	143,12
351,839	135,35
352,045	140,68
352,251	127,51
352,457	154,98
352,663	133,75
352,869	160,95
353,075	150,26
353,28	183,35
353,486	152,67
353,692	148,13
353,898	153,44
354,104	178,15
354,31	167,82
354,515	225,81
354,721	150,7
354,927	173,35
355,133	159,55
355,339	201,85
355,544	157,2
355,75	199,82
355,956	174,99
356,162	193,69
356,367	207,46
356,573	195,5
356,779	194,37
356,984	147,01
357,19	141,91
357,396	178,49
357,602	134,03
357,807	217,51
358,013	234,47
358,218	243,83
358,424	277,95
358,63	302,37
358,835	278,79
359,041	266,97
359,247	226,8
359,452	224,66
359,658	222,04
359,863	176,26
360,069	188,03
360,274	167,11
360,48	156,87
360,685	178,97
360,891	150,18
361,097	183,75
361,302	180,91
361,508	146,69
361,713	183,2
361,918	150,08
362,124	194,7
362,329	191,53
362,535	154,15
362,74	211,4
362,946	167,08
363,151	183,65
363,357	186
363,562	205,24
363,767	210,83
363,973	151,52
364,178	202,94
364,383	218,83
364,589	189,25
364,794	208,15
365	161,01
365,205	176,47
365,41	207,46
365,615	188,28
365,821	195,99
366,026	152,78
366,231	179,29
366,437	181,34
366,642	195,01
366,847	150,76
367,052	211,08
367,258	227,97
367,463	209,13
367,668	200,82
367,873	138,03
368,078	156,93
368,284	217,33
368,489	213,16
368,694	167,14
368,899	173,7
369,104	183,39
369,309	169,13
369,515	211,16
369,72	137,78
369,925	202,26
370,13	160,61
370,335	153,25
370,54	191,26
370,745	187,91
370,95	165,38
371,155	144,39
371,36	178,85
371,565	176,63
371,77	198,45
371,975	211,33
372,18	157,82
372,385	175,4
372,59	161,44
372,795	198,71
373	181,73
373,205	181,6
373,41	180,53
373,615	197
373,82	220,5
374,025	193,89
374,23	233,8
374,435	169,29
374,64	176,3
374,845	171,4
375,05	197,67
375,254	190,08
375,459	205,03
375,664	213,85
375,869	196,44
376,074	202,12
376,279	222,97
376,483	215,92
376,688	214,4
376,893	169,87
377,098	222,83
377,303	193,69
377,507	198,78
377,712	132,85
377,917	185,05
378,122	181,07
378,326	202,19
378,531	211,16
378,736	169,98
378,94	218,03
379,145	195,31
379,35	155,03
379,554	195,48
379,759	223,78
379,964	177,24
380,168	215,32
380,373	163,82
380,578	171
380,782	105,89
380,987	185,7
381,191	184,94
381,396	181,2
381,601	177,9
381,805	177,64
382,01	101,77
382,214	177,68
382,419	207,44
382,623	179,75
382,828	199,66
383,032	194,32
383,237	249,83
383,441	202,16
383,646	149,07
383,85	190,02
384,055	178,72
384,259	194,51
384,464	208,75
384,668	192,87
384,872	191,47
385,077	210,83
385,281	190,85
385,486	198,67
385,69	191,78
385,894	158,98
386,099	162,2
386,303	180,08
386,507	180,08
386,712	138,72
386,916	195,77
387,12	200,86
387,325	160,78
387,529	186,08
387,733	166,92
387,937	201,86
388,142	210,64
388,346	232,11
388,55	156,41
388,754	194,81
388,959	206,76
389,163	213,18
389,367	183,09
389,571	183,87
389,775	152,78
389,98	165,68
390,184	196,74
390,388	174,37
390,592	183,13
390,796	181,81
391	181,81
391,204	206,87
391,409	218,41
391,613	210,21
391,817	243,22
392,021	188,8
392,225	232,43
392,429	251,03
392,633	245,82
392,837	220,01
393,041	203,38
393,245	206,61
393,449	220,75
393,653	221,63
393,857	228,76
394,061	271,46
394,265	276,57
394,469	290,02
394,673	275,1
394,877	236,65
395,081	210,61
395,285	160,26
395,489	190,03
395,693	174,53
395,896	193,33
396,1	171,55
396,304	150,24
396,508	194,08
396,712	177,07
396,916	184,69
397,12	177,81
397,323	139,95
397,527	165,33
397,731	127,35
397,935	152,89
398,139	194,13
398,342	155,17
398,546	153,01
398,75	173,98
398,954	169,25
399,157	143,12
399,361	136,82
399,565	195,42
399,769	116,31
399,972	148,82
400,176	144,35
400,38	162,68
400,583	158,12
400,787	167,13
400,991	144,88
401,194	179,12
401,398	141,26
401,601	154,48
401,805	156,76
402,009	145,32
402,212	156,37
402,416	94,16
402,619	190,99
402,823	158,51
403,026	231,54
403,23	303,52
403,433	344,17
403,637	428,87
403,841	441,43
404,044	491,94
404,247	432,65
404,451	335,58
404,654	242,04
404,858	224,53
405,061	216,74
405,265	209,69
405,468	181,37
405,672	165,62
405,875	153,04
406,078	188,8
406,282	188,02
406,485	191,21
406,689	145,72
406,892	134,88
407,095	197,8
407,299	171,71
407,502	146,18
407,705	191,37
407,909	186,16
408,112	199,45
408,315	212,42
408,518	190,03
408,722	235,26
408,925	236,38
409,128	210,31
409,331	222,04
409,535	159,23
409,738	172,36
409,941	152,93
410,144	181,24
410,347	137,42
410,551	136,14
410,754	130,82
410,957	173,96
411,16	182,98
411,363	148,1
411,566	175,34
411,769	170,29
411,973	181,49
412,176	138,41
412,379	153,14
412,582	152,57
412,785	168,83
412,988	201,5
413,191	178,79
413,394	167,14
413,597	175,82
413,8	211,95
414,003	157,23
414,206	276,38
414,409	345,25
414,612	567,36
414,815	832,7
415,018	1028,35
415,221	1125,77
415,424	1081,75
415,627	968,89
415,83	697,52
416,033	486,12
416,235	385,77
416,438	310,72
416,641	212,88
416,844	257,6
417,047	305,35
417,25	326,98
417,453	337,6
417,655	391,03
417,858	447,37
418,061	558,42
418,264	570,14
418,467	735,47
418,669	871,68
418,872	1084,63
419,075	1310,48
419,278	1329,29
419,48	1301,81
419,683	1178,38
419,886	876,06
420,089	607,54
420,291	372,87
420,494	356,52
420,697	259,32
420,899	193,77
421,102	238,25
421,305	192,52
421,507	176,3
421,71	159,66
421,912	173,6
422,115	204,38
422,318	188,39
422,52	174,06
422,723	188,82
422,925	189,1
423,128	158,02
423,33	227,42
423,533	196,29
423,735	209,76
423,938	227,48
424,14	247,77
424,343	200,24
424,545	313,89
424,748	375,09
424,95	440,8
425,153	545,92
425,355	588,82
425,558	617,11
425,76	588,08
425,962	632,1
426,165	653,08
426,367	706,22
426,57	614,48
426,772	562,51
426,974	432,31
427,177	358,05
427,379	283,5
427,581	218,11
427,784	239,96
427,986	243,58
428,188	205,3
428,39	276,14
428,593	286,63
428,795	322,76
428,997	386,24
429,2	450,69
429,402	434,43
429,604	460,7
429,806	329,88
430,008	256,7
430,211	265,92
430,413	246,13
430,615	232,96
430,817	229,46
431,019	238,62
431,221	205,3
431,423	254,8
431,626	232,52
431,828	262,86
432,03	361,97
432,232	399,02
432,434	475,28
432,636	488,63
432,838	523,41
433,04	450,72
433,242	422,62
433,444	338,9
433,646	325,06
433,848	349,19
434,05	291,23
434,252	270,2
434,454	246,29
434,656	232,35
434,858	208,58
435,06	230,96
435,262	168,5
435,464	218,45
435,666	159,28
435,868	153,22
436,07	172,5
436,271	196,93
436,473	201,93
436,675	177,98
436,877	218,22
437,079	199,47
437,281	253,38
437,482	206,21
437,684	277,64
437,886	256,75
438,088	233,23
438,29	263,62
438,491	243,45
438,693	242,19
438,895	221,54
439,097	185,21
439,298	214,31
439,5	216,33
439,702	233,83
439,903	200,53
440,105	191,55
440,307	175,05
440,508	185,35
440,71	226,25
440,912	162,48
441,113	232,05
441,315	197,15
441,517	203,38
441,718	197,52
441,92	204,09
442,121	180,96
442,323	214,67
442,524	215,33
442,726	197,77
442,928	204,89
443,129	196,7
443,331	172,55
443,532	158,97
443,734	198,95
443,935	174,04
444,136	204,32
444,338	191,04
444,539	166,94
444,741	195,58
444,942	214,25
445,144	178
445,345	174,15
445,546	219,29
445,748	181,05
445,949	203
446,151	225,45
446,352	214,17
446,553	130,77
446,755	181,7
446,956	191,75
447,157	193,62
447,359	192,14
447,56	197,93
447,761	221,21
447,962	232,85
448,164	269,86
448,365	274,71
448,566	283,01
448,767	360,6
448,969	286,78
449,17	312,45
449,371	314,3
449,572	287,26
449,773	337,25
449,974	320,11
450,176	315,68
450,377	314,66
450,578	318,96
450,779	279,5
450,98	314,38
451,181	264,71
451,382	258,09
451,583	243,72
451,784	243,74
451,986	251,93
452,187	220,2
452,388	216,81
452,589	190,92
452,79	224,77
452,991	232,16
453,192	210,95
453,393	276,21
453,594	352,44
453,795	571,38
453,995	942,63
454,196	1251,27
454,397	1484,77
454,598	1532,59
454,799	1446,29
455	1060,92
455,201	722,38
455,402	433,69
455,603	355,35
455,804	298,2
456,004	280,18
456,205	234,96
456,406	232,41
456,607	206,43
456,808	163,39
457,008	237,47
457,209	253,25
457,41	230,54
457,611	228,27
457,811	183,23
458,012	250,75
458,213	297,6
458,414	280
458,614	296,12
458,815	314,99
459,016	240,48
459,216	285,67
459,417	299,49
459,618	264,53
459,818	247,91
460,019	273,76
460,22	282,92
460,42	219,43
460,621	208,2
460,821	200,59
461,022	179,26
461,223	204,62
461,423	254,09
461,624	243,93
461,824	284,26
462,025	280,77
462,225	268,31
462,426	242,67
462,626	271,01
462,827	246,13
463,027	220,96
463,228	226,83
463,428	226,36
463,628	217,37
463,829	183,95
464,029	251,61
464,23	248,79
464,43	231,47
464,63	301,02
464,831	359,02
465,031	408,05
465,231	582,22
465,432	720,43
465,632	766,39
465,832	900,03
466,033	891,48
466,233	776,37
466,433	578,19
466,634	496,02
466,834	388,07
467,034	363,61
467,234	277,01
467,435	277,62
467,635	266,55
467,835	275,67
468,035	238,87
468,235	247,09
468,436	232,05
468,636	250,53
468,836	320,08
469,036	279,34
469,236	299,84
469,436	308,34
469,636	244,05
469,836	288,51
470,037	288,19
470,237	265,62
470,437	198,48
470,637	266,33
470,837	275,29
471,037	238,25
471,237	260,4
471,437	226,11
471,637	247,3
471,837	226,05
472,037	244,79
472,237	213,95
472,437	249,99
472,637	200,23
472,837	257,88
473,036	262,56
473,236	231,21
473,436	318,68
473,636	369,14
473,836	442,34
474,036	448,08
474,236	506,71
474,436	444,63
474,635	398,08
474,835	343,85
475,035	294,07
475,235	307,44
475,435	273,53
475,634	289,97
475,834	281,07
476,034	255,27
476,234	297,33
476,433	266,85
476,633	195,09
476,833	237,81
477,033	259,76
477,232	299,35
477,432	227,34
477,632	183,64
477,831	242,93
478,031	260,45
478,231	250,84
478,43	265,6
478,63	258,58
478,829	319,43
479,029	266,6
479,229	285,15
479,428	280,57
479,628	246,53
479,827	244,62
480,027	275,23
480,226	186,98
480,426	242,24
480,625	209,49
480,825	237,77
481,024	228,61
481,224	197,77
481,423	254,92
481,623	199,14
481,822	289,39
482,021	233,77
482,221	270,06
482,42	231,65
482,62	269,13
482,819	292,04
483,018	264,11
483,218	303
483,417	247,33
483,616	296,18
483,816	225,95
484,015	244,51
484,214	264,01
484,414	268,06
484,613	239,09
484,812	307,1
485,011	355,48
485,211	279,66
485,41	261,35
485,609	319,58
485,808	276,27
486,008	315,72
486,207	301,16
486,406	293,08
486,605	334,59
486,804	327,91
487,003	353,15
487,203	391,68
487,402	371,94
487,601	382,07
487,8	350,37
487,999	383,87
488,198	351,26
488,397	349,35
488,596	330,46
488,795	319,09
488,994	279,34
489,193	324,65
489,392	269,78
489,591	282,87
489,79	296,42
489,989	288,78
490,188	271,73
490,387	237,85
490,586	299,74
490,785	284,18
490,984	271,09
491,183	308,58
491,382	391,58
491,581	677,43
491,779	1106,14
491,978	1686,83
492,177	1951
492,376	2095,76
492,575	2037,19
492,774	1712,76
492,972	1218,46
493,171	844,01
493,37	650,95
493,569	426,21
493,768	353,07
493,966	361,45
494,165	303,1
494,364	282,9
494,563	315,38
494,761	318,94
494,96	294,5
495,159	315,73
495,357	347,32
495,556	329,81
495,755	493,46
495,953	812,27
496,152	1651,73
496,35	3054,67
496,549	4784,43
496,748	6813,2
496,946	8237,4
497,145	8703,45
497,343	8329,35
497,542	7271,47
497,74	5500,92
497,939	3838,74
498,137	2794,55
498,336	2044,52
498,534	1481,5
498,733	1163,1
498,931	955,42
499,13	781,06
499,328	635,18
499,527	468,16
499,725	480,55
499,924	416,65
500,122	388,91
500,32	322,13
500,519	288,95
500,717	303,46
500,915	334,23
501,114	322,91
501,312	280,21
501,51	338,27
501,709	299,55
501,907	299,76
502,105	354,91
502,304	331,64
502,502	320,69
502,7	337,75
502,898	343,91
503,097	329,07
503,295	355,79
503,493	326,32
503,691	317,98
503,889	363,07
504,088	402,82
504,286	337,82
504,484	348,86
504,682	362,36
504,88	350,47
505,078	361,61
505,276	369,12
505,474	330,21
505,672	370,51
505,871	324,29
506,069	308,69
506,267	353,81
506,465	323,54
506,663	349,77
506,861	332
507,059	305,02
507,257	324,92
507,455	350,14
507,653	323,04
507,851	330,41
508,049	354,11
508,246	315,83
508,444	289,69
508,642	339,25
508,84	313,89
509,038	342,34
509,236	315,61
509,434	366,77
509,632	306,47
509,829	337,05
510,027	371,81
510,225	341,91
510,423	384,39
510,621	380,07
510,818	346,78
511,016	361,42
511,214	350,2
511,412	304,99
511,609	364,88
511,807	347,65
512,005	354,64
512,203	320,14
512,4	371,51
512,598	397,96
512,796	466,89
512,993	587,78
513,191	850,77
513,389	1205,05
513,586	1652,99
513,784	2198,57
513,981	2482,51
514,179	2579,74
514,377	2440,81
514,574	2121
514,772	1738,47
514,969	1332,23
515,167	1123,4
515,364	876,09
515,562	769,8
515,759	612,14
515,957	614,7
516,154	557,63
516,352	456,63
516,549	459,91
516,746	467,12
516,944	462,74
517,141	487,87
517,339	532,08
517,536	520,37
517,733	509,06
517,931	540,98
518,128	494,61
518,325	452,9
518,523	426,48
518,72	404
518,917	392,2
519,115	410,24
519,312	406,82
519,509	372,89
519,707	399,84
519,904	450,68
520,101	424,67
520,298	446,94
520,495	456,87
520,693	533,92
520,89	464,48
521,087	520,34
521,284	412,06
521,481	489,24
521,678	431,08
521,876	436,59
522,073	405,48
522,27	411,88
522,467	449,02
522,664	433,28
522,861	446
523,058	414,74
523,255	449,09
523,452	438,86
523,649	454,13
523,846	474,32
524,043	473,22
524,24	456,4
524,437	472,07
524,634	438,7
524,831	460,13
525,028	449,81
525,225	500,39
525,422	441,79
525,619	456,55
525,816	449,81
526,013	407,64
526,209	403,76
526,406	443,07
526,603	453,54
526,8	487,86
526,997	464,52
527,194	465,2
527,39	451,42
527,587	470,2
527,784	452,49
527,981	443,32
528,177	440,67
528,374	435,93
528,571	379,88
528,768	460,76
528,964	448,5
529,161	462,4
529,358	427,27
529,554	428,46
529,751	461,77
529,948	480,62
530,144	454,28
530,341	506,05
530,537	464,37
530,734	465,89
530,931	449,1
531,127	464,08
531,324	476,1
531,52	482,47
531,717	506,57
531,913	437,84
532,11	503,97
532,306	484,26
532,503	515,16
532,699	465,67
532,896	388,18
533,092	451,35
533,289	502,54
533,485	64,63
533,682	458,96
533,878	444,53
534,074	462,15
534,271	425,47
534,467	418,79
534,664	457,73
534,86	503,61
535,056	501,99
535,253	499,58
535,449	532,39
535,645	527,46
535,841	549,67
536,038	522,58
536,234	539,67
536,43	504,25
536,626	509,48
536,823	528,56
537,019	531
537,215	532,06
537,411	508,76
537,607	530,8
537,804	542,22
538	554,45
538,196	518,4
538,392	566,47
538,588	495,01
538,784	584,42
538,98	564,61
539,176	536,27
539,373	539,83
539,569	543,7
539,765	587,76
539,961	563,63
540,157	531,4
540,353	612,7
540,549	556,51
540,745	549,47
540,941	617,62
541,137	600,48
541,333	593,97
541,528	584,9
541,724	596,27
541,92	582,55
542,116	604,27
542,312	635,64
542,508	613,05
542,704	617,9
542,9	616,14
543,096	649,44
543,291	618,41
543,487	646,24
543,683	648,94
543,879	618,93
544,075	621,05
544,27	674,2
544,466	671,26
544,662	640,62
544,858	650,46
545,053	616,25
545,249	608,01
545,445	619,68
545,64	631,81
545,836	642,43
546,032	622,75
546,227	657,93
546,423	606,1
546,619	641,58
546,814	658,64
547,01	682,03
547,205	662,03
547,401	667,12
547,597	678,51
547,792	763,31
547,988	773,67
548,183	876,59
548,379	830,67
548,574	867,71
548,77	890,91
548,965	839,7
549,161	867,78
549,356	838,34
549,552	768,93
549,747	775,83
549,942	740,75
550,138	786,26
550,333	776,48
550,529	791,63
550,724	844,56
550,919	802,11
551,115	814,35
551,31	830,21
551,505	879,85
551,701	870,78
551,896	912,73
552,091	892,5
552,287	907,55
552,482	929,19
552,677	942,05
552,872	965,25
553,067	922,24
553,263	918,94
553,458	945,36
553,653	918,68
553,848	966,84
554,043	1012,32
554,239	1097,71
554,434	1119,17
554,629	1157,3
554,824	1152,75
555,019	1117,81
555,214	1112,25
555,409	1099,87
555,604	1060,62
555,799	1099,66
555,994	1085,61
556,189	1097,79
556,384	1070,25
556,579	1063,87
556,774	1067,32
556,969	1072,63
557,164	1084,18
557,359	1055,35
557,554	1087,04
557,749	1146,1
557,944	1136,19
558,139	1159,67
558,334	1232,64
558,529	1212,36
558,724	1275,6
558,918	1310,62
559,113	1361,71
559,308	1379,9
559,503	1443,15
559,698	1481,45
559,893	1437,01
560,087	1400,7
560,282	1448,97
560,477	1371,76
560,672	1444,37
560,866	1459,82
561,061	1413,32
561,256	1467,67
561,45	1444,04
561,645	1469,98
561,84	1484,76
562,034	1507,76
562,229	1534,38
562,424	1633,74
562,618	1660,81
562,813	1770,23
563,008	1891,55
563,202	1997,84
563,397	2188,61
563,591	2347,73
563,786	2479,33
563,98	2582,56
564,175	2679,92
564,369	2854,25
564,564	2909,14
564,758	2986,75
564,953	3088,84
565,147	3118,38
565,342	3104,59
565,536	3148,64
565,731	3303,91
565,925	4270,66
566,119	7297,62
566,314	13449,76
566,508	23587,46
566,703	37823,41
566,897	53908,69
567,091	63305,48
567,286	63205,24
567,48	64232,85
567,674	64255,79
567,868	64329,93
568,063	64277,29
568,257	64318,87
568,451	58476,53
568,646	34145,34
568,84	19381,74
569,034	15196,29
569,228	12315,1
569,422	10336,55
569,616	8697,14
569,811	7516,91
570,005	6328,87
570,199	5497,12
570,393	4775,14
570,587	4181,08
570,781	3817,68
570,975	3558,22
571,169	3351,01
571,364	3205,59
571,558	3160,27
571,752	3174,55
571,946	3148,2
572,14	3188,09
572,334	3226,97
572,528	3276,89
572,722	3236,64
572,916	3338,17
573,109	3300,3
573,303	3332,01
573,497	3334,72
573,691	3326,31
573,885	3338,77
574,079	3412,2
574,273	3427,64
574,467	3454,89
574,661	3524
574,854	3559,95
575,048	3602,71
575,242	3684,75
575,436	3741,75
575,63	3842,19
575,823	3854,7
576,017	3969,64
576,211	4002,45
576,405	4082,48
576,598	4103,56
576,792	4179,81
576,986	4228
577,18	4314,48
577,373	4436,54
577,567	4525,13
577,761	4609,85
577,954	4720,96
578,148	4797,96
578,341	4920,75
578,535	4955,03
578,729	5103,33
578,922	5165,31
579,116	5328,45
579,309	5421,79
579,503	5618,79
579,696	5738,75
579,89	5887,55
580,083	6162,3
580,277	6714,23
580,47	8145,57
580,664	10920,24
580,857	14053,47
581,051	16802,53
581,244	20291,9
581,437	23616,32
581,631	24394,17
581,824	24111,49
582,018	24051,44
582,211	23157,64
582,404	20750
582,598	18747,84
582,791	17503,03
582,984	16233,35
583,178	15332,15
583,371	14831,75
583,564	14655,66
583,757	14905,9
583,951	15206,97
584,144	15837,85
584,337	16531,11
584,53	17604,29
584,723	18732,33
584,917	20284,32
585,11	22053,97
585,303	24563,19
585,496	27123,72
585,689	31444,57
585,882	63121,25
586,075	63448,48
586,268	64336,48
586,462	64330,74
586,655	64351,84
586,848	64293,68
587,041	64336,68
587,234	64322,35
587,427	64274,22
587,62	64331,56
587,813	64334,02
588,006	64298,18
588,199	64311,49
588,392	64311,49
588,585	64295,31
588,777	64272,79
588,97	64292,04
589,163	64264,6
589,356	64265,62
589,549	64284,46
589,742	64341,6
589,935	64376,82
590,128	64314,16
590,32	64283,44
590,513	64313,13
590,706	64341,8
590,899	64330,33
591,092	64277,91
591,284	64316,2
591,477	64354,09
591,67	64301,25
591,863	64312,52
592,055	64397,71
592,248	64262,96
592,441	64302,69
592,633	64340,98
592,826	64317,64
593,019	64321,73
593,211	64292,04
593,404	64373,75
593,596	64304,53
593,789	64333,2
593,982	64308,22
594,174	64350
594,367	64324,6
594,559	64292,65
594,752	64363,1
594,944	64325,83
595,137	64312,31
595,329	64314,57
595,522	64302,07
595,714	64323,37
595,907	64325,62
596,099	64328,08
596,292	64329,11
596,484	64331,36
596,676	64370,48
596,869	64328,08
597,061	64261,73
597,253	64363,72
597,446	64346,51
597,638	64333,2
597,83	64314,16
598,023	64272,58
598,215	64359,62
598,407	64345,69
598,6	64392,18
598,792	64309,86
598,984	64336,68
599,176	64318,25
599,369	64308,42
599,561	64266,64
599,753	64362,9
599,945	64294,91
600,137	64345,69
600,329	64312,11
600,522	64335,05
600,714	64369,66
600,906	64388,91
601,098	64306,99
601,29	64333,82
601,482	64339,55
601,674	64332,79
601,866	64308,63
602,058	64347,74
602,25	64312,31
602,442	64282
602,634	64333,82
602,826	64375,39
603,018	64364,54
603,21	64305,76
603,402	64327,26
603,594	64345,49
603,786	64336,27
603,978	64288,76
604,17	64356,14
604,362	64302,28
604,554	64321,53
604,745	64304,53
604,937	64337,71
605,129	64277,09
605,321	64372,73
605,513	64355,93
605,704	64361,26
605,896	64322,96
606,088	64341,8
606,28	64325,21
606,471	64307,81
606,663	64358,39
606,855	64393
607,047	64305,96
607,238	64349,18
607,43	64343,85
607,622	64311,7
607,813	64318,46
608,005	64353,07
608,197	64295,72
608,388	64353,89
608,58	64370,07
608,771	64303,1
608,963	64312,93
609,154	64334,02
609,346	64369,45
609,537	64328,49
609,729	64393,62
609,921	64312,93
610,112	64346,31
610,303	64348,56
610,495	64357,57
610,686	64324,81
610,878	64379,49
611,069	64404,68
611,261	64328,9
611,452	64377,03
611,643	64372,73
611,835	64367,61
612,026	64322,96
612,217	64342,83
612,409	64367,4
612,6	64340,17
612,791	64335,45
612,983	64331,15
613,174	64280,16
613,365	64352,04
613,557	64349,18
613,748	64368,43
613,939	64343,03
614,13	64380,92
614,321	64353,27
614,513	64311,49
614,704	64333,61
614,895	64368,43
615,086	64400,17
615,277	64383,38
615,468	64379,69
615,659	64315,18
615,851	64381,33
616,042	64355,32
616,233	64379,49
616,424	64381,53
616,615	64334,43
616,806	64363,1
616,997	64434,99
617,188	64407,54
617,379	64367,4
617,57	64347,54
617,761	64346,51
617,952	64331,15
618,143	64297,16
618,334	64383,99
618,524	64357,37
618,715	64389,11
618,906	64402,42
619,097	64405,09
619,288	64400,17
619,479	64338,53
619,67	64357,37
619,86	64388,09
620,051	64376,21
620,242	64346,92
620,433	64380,31
620,624	64323,78
620,814	64323,78
621,005	64334,02
621,196	64375,8
621,386	64327,88
621,577	64365,56
621,768	64300,43
621,958	64398,53
622,149	64381,33
622,34	64369,66
622,53	64365,15
622,721	64400,79
622,912	64314,36
623,102	64328,9
623,293	64336,48
623,483	64342,21
623,674	64361,26
623,864	64361,87
624,055	64408,36
624,245	64352,04
624,436	64411,64
624,626	64386,65
624,817	64363,51
625,007	64377,03
625,198	64398,33
625,388	64370,88
625,579	64303,51
625,769	64337,5
625,959	64354,3
626,15	64397,71
626,34	64380,92
626,531	64291,22
626,721	64325,83
626,911	64411,64
627,101	64369,04
627,292	64348,97
627,482	64376,82
627,672	64389,52
627,863	64385,83
628,053	64275,24
628,243	64359,83
628,433	64399,56
628,623	64333
628,814	64371,09
629,004	64363,72
629,194	64397,51
629,384	64376
629,574	64367,4
629,764	64310,67
629,955	64346,72
630,145	64351,63
630,335	64367,61
630,525	64349,79
630,715	64352,25
630,905	64326,65
631,095	64370,88
631,285	64352,66
631,475	64362,28
631,665	64258,66
631,855	64375,6
632,045	64379,08
632,235	64369,66
632,425	64372,52
632,615	64375,19
632,805	64353,07
632,994	64357,78
633,184	64335,25
633,374	58527,02
633,564	64365,56
633,754	34127,51
633,944	60381,09
634,133	14160,77
634,323	39592,65
634,513	1805,03
634,703	17997,56
634,893	1541,61
635,082	3147,39
635,272	1537,5
635,462	1530,43
635,651	1476,6
635,841	1513,79
636,031	1524,17
636,221	1472,06
636,41	1509,63
636,6	1506,61
636,789	1453,99
636,979	1484,55
637,169	1505,11
637,358	1491,8
637,548	1461,52
637,737	1435,32
637,927	1432,09
638,116	1405,25
638,306	1389,76
638,495	1377,35
638,685	1368,81
638,874	1384,6
639,064	1352,4
639,253	1368,61
639,443	1425,04
639,632	1507,51
639,822	1562,6
640,011	1600,14
640,2	1582,78
640,39	1618,51
640,579	1550,85
640,768	1520,65
640,958	1448,9
641,147	1415,9
641,336	1364,53
641,526	1322,87
641,715	1314,27
641,904	1272,24
642,093	1321,11
642,283	1238,59
642,472	1208,38
642,661	1261,55
642,85	1206,49
643,039	1254,74
643,228	1144,1
643,418	1198,34
643,607	1197,33
643,796	1176,11
643,985	1194,36
644,174	1168,16
644,363	1159,32
644,552	1194,36
644,741	1200,22
644,93	1202,08
645,119	1132,73
645,308	1196
645,497	1150,12
645,686	1152,26
645,875	1199,21
646,064	1151,4
646,253	1133,37
646,442	1155,32
646,631	1160,8
646,82	1145,65
647,009	1114,36
647,198	1096,84
647,387	1156,25
647,575	1211,65
647,764	1020,06
647,953	1362,53
648,142	1396,22
648,331	1388,93
648,519	1351,37
648,708	1289,08
648,897	1212,99
649,086	1180,92
649,274	1156,5
649,463	1146,89
649,652	1055,32
649,84	1086,22
650,029	1026,85
650,218	1062,5
650,406	1064,97
650,595	1056,21
650,784	987,8
650,972	1032,3
651,161	1012,04
651,349	1025,75
651,538	1014,37
651,726	982,63
651,915	986,49
652,104	992,88
652,292	1022,09
652,481	993,88
652,669	957,8
652,857	990,46
653,046	935,19
653,234	968,01
653,423	910,57
653,611	951,86
653,8	932,3
653,988	925,49
654,176	926,25
654,365	981,73
654,553	946,05
654,741	983,59
654,93	1026,06
655,118	999,63
655,306	974,89
655,494	1001,71
655,683	940,65
655,871	906,27
656,059	887,07
656,247	904,24
656,436	881,36
656,624	851,05
656,812	859,97
657	859,06
657,188	827,22
657,376	869,77
657,564	859,66
657,753	853,01
657,941	849,67
658,129	842,19
658,317	853,94
658,505	909,69
658,693	860,49
658,881	879,93
659,069	854,85
659,257	851,29
659,445	835,87
659,633	827,11
659,821	828,37
660,009	780,43
660,197	796,28
660,384	793,44
660,572	726,95
660,76	791,16
660,948	768,66
661,136	780,86
661,324	760,23
661,512	744,5
661,699	792,25
661,887	738,1
662,075	738,05
662,263	737,47
662,451	760,38
662,638	745,66
662,826	724,99
663,014	706,56
663,201	686,56
663,389	732,3
663,577	721,31
663,764	690,78
663,952	744,28
664,14	713,86
664,327	735,12
664,515	705,22
664,702	706,89
664,89	715,87
665,078	742,72
665,265	750,04
665,453	753,38
665,64	843,08
665,828	911,91
666,015	943,83
666,203	989,8
666,39	991,72
666,578	984,14
666,765	919,72
666,952	783,88
667,14	782,07
667,327	756,56
667,515	735,64
667,702	701,8
667,889	697,2
668,077	665,18
668,264	624,93
668,451	640,32
668,638	648,48
668,826	623,95
669,013	622,97
669,2	602,78
669,388	583,59
669,575	591,8
669,762	636,71
669,949	587,8
670,136	265,87
670,323	566,84
670,511	608,7
670,698	588,47
670,885	558,98
671,072	559
671,259	546,44
671,446	572,67
671,633	566,09
671,82	568,95
672,007	565,74
672,194	542,35
672,381	541,62
672,568	509,66
672,755	553,39
672,942	570,58
673,129	694,94
673,316	840,61
673,503	911,53
673,69	1013,43
673,877	1028,17
674,064	1011,8
674,251	933,87
674,437	825,08
674,624	713,19
674,811	669,57
674,998	656,72
675,185	613,81
675,372	557,42
675,558	546,76
675,745	514,71
675,932	516,83
676,119	529,29
676,305	475,68
676,492	468,67
676,679	473,8
676,865	426,02
677,052	425,01
677,239	465,23
677,425	427,66
677,612	388,4
677,798	427,35
677,985	404,71
678,172	410,85
678,358	409,76
678,545	418,16
678,731	433,8
678,918	441,67
679,104	415,67
679,291	280,11
679,477	401,04
679,664	424,04
679,85	414,65
680,036	365,8
680,223	422,9
680,409	385,13
680,596	396,39
680,782	385,71
680,968	379,96
681,155	421,97
681,341	377,38
681,527	374,73
681,714	376,89
681,9	411,5
682,086	372,85
682,272	414,21
682,459	379,56
682,645	345,74
682,831	347,02
683,017	318,88
683,204	348,69
683,39	379,69
683,576	334,79
683,762	359,87
683,948	366,74
684,134	415,42
684,32	378,76
684,506	350
684,693	365,29
684,879	504,44
685,065	571,35
685,251	705,62
685,437	790,69
685,623	803,05
685,809	821,08
685,995	724,98
686,181	689,91
686,366	576,12
686,552	563,16
686,738	543,31
686,924	484,44
687,11	486,97
687,296	420,49
687,482	408,16
687,668	460,81
687,853	438,59
688,039	408,71
688,225	399,46
688,411	386,51
688,597	321,8
688,782	365,13
688,968	389,3
689,154	368,43
689,34	333,26
689,525	335,97
689,711	362,06
689,897	327,58
690,082	361,87
690,268	347,46
690,454	361,64
690,639	351,54
690,825	368
691,01	347,14
691,196	313,57
691,381	378,57
691,567	412,27
691,753	440,94
691,938	494,06
692,124	535,87
692,309	561,53
692,494	536,6
692,68	540,06
692,865	486,96
693,051	446,33
693,236	426,23
693,422	421
693,607	483,51
693,792	657,33
693,978	1599,45
694,163	5092,22
694,348	12181,71
694,534	21817,18
694,719	31057,63
694,904	36331,59
695,089	38780,05
695,275	36902,58
695,46	31001,27
695,645	23050,12
695,83	17421,39
696,016	13631,39
696,201	10432,7
696,386	7928,66
696,571	6060,65
696,756	4693,08
696,941	3777,21
697,126	3141,17
697,311	2714,08
697,497	2287,52
697,682	2017,96
697,867	1656,36
698,052	1413,46
698,237	1110,64
698,422	909,3
698,607	713,07
698,792	575,85
698,977	460,98
699,162	391,18
699,347	326,92
699,531	369,21
699,716	342,28
699,901	364,13
700,086	299,95
700,271	309,68
700,456	300,15
700,641	357,46
700,825	473,74
701,01	500,27
701,195	600,92
701,38	660,55
701,565	655,28
701,749	654,02
701,934	608,37
702,119	469,6
702,303	459,39
702,488	405,34
702,673	350,63
702,857	341,25
703,042	339,58
703,227	328,63
703,411	353,97
703,596	302,77
703,78	354,77
703,965	478,17
704,15	1078,87
704,334	3169,28
704,519	7391,26
704,703	13043,04
704,888	18302,35
705,072	21536,11
705,257	22883,89
705,441	21965,96
705,625	18146,47
705,81	13597,94
705,994	10213,25
706,179	7947,53
706,363	6173,08
706,547	4741,38
706,732	3537,86
706,916	2854,16
707,1	2349,06
707,285	1965,17
707,469	1632,76
707,653	1417,32
707,837	1243,9
708,022	995,77
708,206	779,45
708,39	666,8
708,574	540,91
708,759	436,31
708,943	389,44
709,127	378,23
709,311	360,42
709,495	337,93
709,679	316,85
709,863	290,54
710,047	290,48
710,231	282,57
710,415	323,66
710,6	264,74
710,784	298,39
710,968	288,93
711,152	297,06
711,336	309,04
711,519	258,01
711,703	300,75
711,887	285,96
712,071	327,94
712,255	492,14
712,439	811,02
712,623	1382,58
712,807	1961,04
712,991	2346,54
713,174	2591,17
713,358	2555,22
713,542	2249,28
713,726	1770,26
713,91	1351,66
714,093	1120,93
714,277	957,79
714,461	785,82
714,645	697,6
714,828	603,25
715,012	516,73
715,196	483,73
715,379	382,09
715,563	379,45
715,747	353,52
715,93	358,66
716,114	342,1
716,297	323,29
716,481	322,99
716,664	292,32
716,848	305,43
717,031	298,28
717,215	331,23
717,398	270,94
717,582	274,46
717,765	245,53
717,949	282,65
718,132	266,5
718,316	313,1
718,499	313,97
718,682	292,35
718,866	360,52
719,049	344,01
719,233	379,99
719,416	346,72
719,599	307,29
719,782	328,66
719,966	317,26
720,149	290,65
720,332	255,91
720,515	295,28
720,699	256,56
720,882	263,13
721,065	282,29
721,248	227,92
721,431	236,93
721,615	286,43
721,798	226,42
721,981	250,24
722,164	245,58
722,347	230,58
722,53	189,67
722,713	272,22
722,896	247,5
723,079	269,07
723,262	228,96
723,445	230,24
723,628	271,7
723,811	263,68
723,994	228,02
724,177	277,17
724,36	272,39
724,543	368,16
724,726	602,37
724,909	1459,55
725,091	3117,18
725,274	5150,32
725,457	6875,61
725,64	7994,01
725,823	8448,34
726,006	7990,38
726,188	6644,79
726,371	4955,07
726,554	3811,35
726,737	3045,85
726,919	2412,58
727,102	1931,93
727,285	1549,7
727,467	1249,51
727,65	1031,17
727,833	866,81
728,015	699,76
728,198	572,29
728,38	473,74
728,563	402,77
728,746	360,87
728,928	334,41
729,111	348,06
729,293	343,98
729,476	338,62
729,658	373,47
729,841	370,92
730,023	302,36
730,205	350,37
730,388	305,18
730,57	302,78
730,753	284,7
730,935	267,81
731,117	230,03
731,3	302,56
731,482	293,23
731,664	284,63
731,847	299,84
732,029	280,29
732,211	282,29
732,394	332,13
732,576	295,87
732,758	248,9
732,94	308,94
733,122	321,18
733,305	354,04
733,487	414,92
733,669	447,01
733,851	470,6
734,033	448,38
734,215	376,92
734,397	365,43
734,58	350,12
734,762	404,91
734,944	413,72
735,126	598,3
735,308	671,61
735,49	869,75
735,672	1210,13
735,854	2783,5
736,036	7368,83
736,218	15376,76
736,399	25118,52
736,581	33398,71
736,763	37758,38
736,945	39185,01
737,127	36187,34
737,309	29142,23
737,491	21484,48
737,672	16653,42
737,854	13185,29
738,036	10324,88
738,218	8007,19
738,4	6223,3
738,581	4678,68
738,763	3473,48
738,945	2471,11
739,127	1733,98
739,308	1257,18
739,49	911,72
739,672	691,79
739,853	529,11
740,035	477,43
740,216	389
740,398	340,91
740,58	345,9
740,761	323,58
740,943	314,42
741,124	349,19
741,306	360,17
741,487	371,2
741,669	397,07
741,85	440,26
742,032	400,22
742,213	396,56
742,394	384,62
742,576	340,73
742,757	292,62
742,939	296,28
743,12	295,14
743,301	296,89
743,483	290,43
743,664	321,36
743,845	289,58
744,027	301,58
744,208	292,08
744,389	296,53
744,57	357,68
744,752	322,71
744,933	345,35
745,114	388,18
745,295	386,76
745,476	366,9
745,657	393,44
745,839	404,35
746,02	336,86
746,201	331,66
746,382	349,52
746,563	310,6
746,744	374,04
746,925	403,68
747,106	383,41
747,287	386,95
747,468	448,2
747,649	750,85
747,83	2069,06
748,011	5795,83
748,192	12474,41
748,373	20235,09
748,554	26846,27
748,735	30754,88
748,915	33514,19
749,096	35453,38
749,277	37067,46
749,458	39096,6
749,639	42098,99
749,82	42719,02
750	41427,1
750,181	36719,45
750,362	29296,06
750,543	21243,12
750,723	16103,77
750,904	12351,28
751,085	9415,41
751,265	7028,36
751,446	5084,19
751,627	3449,47
751,807	2281,48
751,988	1550,56
752,169	1089,12
752,349	833,36
752,53	663
752,71	576,6
752,891	479,55
753,071	441,05
753,252	453,37
753,432	408,14
753,613	372,98
753,793	333,2
753,974	346,53
754,154	325,01
754,334	323,21
754,515	349,14
754,695	333,2
754,876	306,41
755,056	299,77
755,236	340,51
755,417	328,22
755,597	290,64
755,777	341,87
755,957	309,19
756,138	356,01
756,318	333,12
756,498	363,65
756,678	412,85
756,859	420,73
757,039	479,3
757,219	498,65
757,399	553,48
757,579	549,09
757,759	571,05
757,939	553,61
758,119	491,04
758,3	424,23
758,48	421,33
758,66	463,18
758,84	463,28
759,02	421,86
759,2	471,22
759,38	483,51
759,56	467,36
759,74	543,48
759,919	579,38
760,099	595,29
760,279	687,06
760,459	847,13
760,639	1381,76
760,819	3935,53
760,999	14488,13
761,178	42563,83
761,358	62290,46
761,538	62717,95
761,718	64051,05
761,898	64381,2
762,077	64544,55
762,257	64512,81
762,437	64504,21
762,616	64510,35
762,796	64509,74
762,976	64501,14
763,155	64509,33
763,335	64482,5
763,515	64475,33
763,694	64475,13
763,874	64521,21
764,053	64485,37
764,233	64457,51
764,413	64532,67
764,592	64465,91
764,772	64455,88
764,951	64465,91
765,131	64500,52
765,31	64451,76
765,489	56841,39
765,669	47228,88
765,848	43317,5
766,028	40115,69
766,207	37805,83
766,386	35948,5
766,566	18459,73
766,745	6063,37
766,924	2331,23
767,104	1862,34
767,283	2454,08
767,462	5434,08
767,642	11787,52
767,821	19921,42
768	27942,96
768,179	32699,43
768,358	35492,6
768,538	34260,03
768,717	29307,9
768,896	22036,98
769,075	16225,77
769,254	12302,63
769,433	8679,15
769,612	6465,88
769,791	6262,53
769,97	10808,89
770,149	21487,9
770,328	35989,94
770,507	49402,56
770,686	55706,67
770,865	58302,42
771,044	58034,08
771,223	54007,2
771,402	42636,66
771,581	29433,61
771,76	20835,68
771,939	14057,74
772,118	9764,08
772,297	6502,09
772,475	4274,47
772,654	2828,07
772,833	1879,4
773,012	1283,71
773,191	969,96
773,369	738,26
773,548	588,03
773,727	602,12
773,906	446,31
774,084	436,91
774,263	422,82
774,442	373,72
774,62	383,06
774,799	367,42
774,977	333,25
775,156	314,14
775,335	312,72
775,513	331,72
775,692	340,12
775,87	228,2
776,049	330,08
776,227	270,46
776,406	267,24
776,584	290,32
776,763	282,79
776,941	322,05
777,119	306,96
777,298	291,91
777,476	246,05
777,655	299,22
777,833	360,8
778,011	409,86
778,19	440,14
778,368	430,95
778,546	442,44
778,725	389,19
778,903	401,42
779,081	354,41
779,259	314,99
779,437	318,54
779,616	286,84
779,794	277,62
779,972	225,29
780,15	260,01
780,328	266,85
780,506	248,05
780,685	273,87
780,863	262,53
781,041	270,69
781,219	224,91
781,397	201,41
781,575	259,88
781,753	259,77
781,931	272,88
782,109	241,66
782,287	248,81
782,465	235,67
782,643	243,03
782,82	242,08
782,998	194,43
783,176	204,54
783,354	259,92
783,532	248,35
783,71	259,92
783,888	252,31
784,065	275,15
784,243	262,72
784,421	271,27
784,599	240,18
784,776	266,78
784,954	265,62
785,132	259,38
785,31	290,05
785,487	246,37
785,665	265,43
785,842	234,62
786,02	161,09
786,198	246,42
786,375	248,56
786,553	211,13
786,73	271,2
786,908	266,11
787,085	278,17
787,263	305,98
787,44	305,35
787,618	279,12
787,795	327,15
787,973	302,21
788,15	286,7
788,328	270,3
788,505	258,97
788,682	287,04
788,86	311,48
789,037	301,54
789,215	303,46
789,392	311,27
789,569	263,48
789,746	251,35
789,924	290,62
790,101	264,41
790,278	257,17
790,455	289,04
790,633	251,3
790,81	245,82
790,987	307,9
791,164	297,25
791,341	297,33
791,518	311,23
791,695	321,5
791,873	385,54
792,05	645,33
792,227	1760,01
792,404	5244,53
792,581	12004,04
792,758	20011,09
792,935	27796,89
793,112	31641,43
793,289	32847,97
793,466	30036,77
793,643	23490,78
793,82	15567
793,996	9888,6
794,173	6935,84
794,35	4855,94
794,527	3613,62
794,704	2750,83
794,881	2149,31
795,057	1613,34
795,234	1239,35
795,411	927,08
795,588	770,62
795,765	661,96
795,941	571,46
796,118	505,06
796,295	431,38
796,471	465,85
796,648	446,69
796,825	383,55
797,001	380,24
797,178	383,53
797,354	371,94
797,531	412,66
797,708	479,44
797,884	668,49
798,061	1573,42
798,237	4024,73
798,414	8044,06
798,59	12861,75
798,767	16774,33
798,943	20540,67
799,119	25254,26
799,296	30666,77
799,472	34613,13
799,649	36547,72
799,825	36493,38
800,001	34866,04
800,178	29148,74
800,354	21088,28
800,53	13347,7
800,707	8942,17
800,883	6412,08
801,059	4614,73
801,235	3507,93
801,411	2801,15
801,588	2171,32
801,764	1636,31
801,94	1307,45
802,116	978,63
802,292	869,19
802,468	700,01
802,645	619,85
802,821	568,72
802,997	528,78
803,173	522,36
803,349	519,47
803,525	497,42
803,701	518,37
803,877	510,11
804,053	470,4
804,229	482,18
804,405	471,68
804,581	452,96
804,756	487,46
804,932	491,24
805,108	481,87
805,284	518,51
805,46	524,28
805,636	560,97
805,812	563,49
805,987	577,27
806,163	564,59
806,339	509,5
806,515	592,71
806,69	592,79
806,866	561,33
807,042	593,88
807,217	617,82
807,393	709,74
807,569	1016,94
807,744	2334,6
807,92	6567,8
808,096	15006,76
808,271	25433,61
808,447	34334,87
808,622	39245,19
808,798	41436,66
808,973	44855,21
809,149	53863,95
809,324	61619,93
809,5	62833,68
809,675	63540,7
809,851	64290,43
810,026	64394,33
810,201	64520,8
810,377	64519,98
810,552	64544,14
810,728	64503,18
810,903	64511,78
811,078	62026,91
811,253	48915,16
811,429	37024,88
811,604	35954,2
811,779	23076,35
811,955	5662,5
812,13	3346,24
812,305	2492,71
812,48	1965,28
812,655	1533,52
812,83	1285,59
813,006	1152,11
813,181	1085,15
813,356	1053,6
813,531	1075,97
813,706	1033,21
813,881	1054,56
814,056	1086,51
814,231	1057,63
814,406	1025,75
814,581	1080,41
814,756	1083,12
814,931	1104,33
815,106	1150,58
815,281	1275,74
815,456	1759,38
815,631	4293,67
815,805	13373,03
815,98	33551,38
816,155	60019,2
816,33	62255,88
816,505	63018,08
816,68	63910
816,854	64378,08
817,029	64544,96
817,204	64557,45
817,379	64539,84
817,553	64531,45
817,728	64564,42
817,903	64520,8
818,077	64483,32
818,252	64524,28
818,427	64525,92
818,601	64478,61
818,776	64550,49
818,95	64538,61
819,125	64507,28
819,299	64540,05
819,474	64508,3
819,648	64530,83
819,823	64480,66
819,997	64502,98
820,172	64564,42
820,346	64542,5
820,521	64533,08
820,695	64564,42
820,87	64525,3
821,044	64541,89
821,218	64480,45
821,393	64483,32
821,567	58188,38
821,741	19267,16
821,916	988,85
822,09	817,26
822,264	764,68
822,438	774,9
822,613	739,36
822,787	683,89
822,961	694,54
823,135	652,35
823,309	670,94
823,483	733,45
823,658	973,57
823,832	1937,6
824,006	4548,11
824,18	8918,62
824,354	13940,19
824,528	18241,87
824,702	20127,42
824,876	20277,66
825,05	17930,7
825,224	13895,04
825,398	9359,88
825,572	6291,85
825,746	4819,95
825,92	3844,29
826,093	3092,37
826,267	2555,12
826,441	2117,35
826,615	1690,89
826,789	1381,05
826,963	1070,22
827,136	873,11
827,31	711,02
827,484	620,2
827,658	541,18
827,831	493,07
828,005	445,68
828,179	471,75
828,353	412,92
828,526	403,15
828,7	408,55
828,873	410,77
829,047	410,3
829,221	373,28
829,394	381,55
829,568	374,27
829,741	351,6
829,915	324,4
830,088	305,48
830,262	328,52
830,435	362,44
830,609	340,97
830,782	346,21
830,956	361,62
831,129	353,45
831,302	356,9
831,476	352,01
831,649	356,49
831,822	309,43
831,996	311,13
832,169	289,77
832,342	357,68
832,516	281,92
832,689	357,79
832,862	301,11
833,035	295,22
833,209	299,6
833,382	311,65
833,555	328,26
833,728	351,81
833,901	324,82
834,074	301,71
834,247	314,39
834,42	307
834,594	338,43
834,767	282,13
834,94	329,33
835,113	287,04
835,286	344,4
835,459	332,67
835,632	376,68
835,805	364,17
835,977	357,42
836,15	336,67
836,323	403,29
836,496	388,97
836,669	406,52
836,842	413,44
837,015	403,16
837,188	452,87
837,36	415,2
837,533	471,6
837,706	533,05
837,879	667,56
838,051	1206,06
838,224	2560,18
838,397	5574,13
838,569	10253,52
838,742	15780,35
838,915	19996,36
839,087	22231,3
839,26	21911,77
839,433	19580,58
839,605	15966,73
839,778	12616,08
839,95	11915,25
840,123	14989,71
840,295	20828,49
840,468	26807,81
840,64	30722,51
840,813	31552,66
840,985	29540,4
841,158	24858,24
841,33	18666,81
841,502	12764,29
841,675	9097,66
841,847	7127,07
842,019	5826,93
842,192	4705,49
842,364	3800,6
842,536	3157,95
842,709	2505,69
842,881	1974,21
843,053	1523,94
843,225	1116,28
843,398	834,18
843,57	657,71
843,742	582,41
843,914	453,39
844,086	421,2
844,258	417,28
844,43	380,7
844,602	321,81
844,775	364,98
844,947	306,88
845,119	359,54
845,291	300,94
845,463	295,55
845,635	335,55
845,807	310,36
845,979	292,38
846,15	316,14
846,322	299,32
846,494	298,56
846,666	286,68
846,838	276,43
847,01	294,39
847,182	271,87
847,354	269,75
847,525	277,86
847,697	272,24
847,869	320,41
848,041	298,35
848,212	267,81
848,384	327,22
848,556	303,32
848,727	317,46
848,899	325,72
849,071	330,57
849,242	389,91
849,414	547,73
849,585	986,87
849,757	1799,77
849,929	3048,57
850,1	4617,28
850,272	5900,59
850,443	6688,44
850,615	6692,84
850,786	6097,07
850,958	5110,36
851,129	3874,74
851,3	2746,56
851,472	2157,31
851,643	1799,93
851,815	1543,49
851,986	1283,88
852,157	1073,29
852,329	863,99
852,5	786,98
852,671	600,56
852,842	510,9
853,014	444,33
853,185	344,12
853,356	321,54
853,527	301,93
853,698	276,27
853,87	290,57
854,041	227,16
854,212	255,79
854,383	259,73
854,554	280,11
854,725	194,13
854,896	238,77
855,067	232,38
855,238	238,43
855,409	256,09
855,58	236,35
855,751	205,79
855,922	232,76
856,093	205,63
856,264	296,97
856,435	270,2
856,606	263,82
856,777	224,01
856,948	255,11
857,118	258,18
857,289	254,01
857,46	201,63
857,631	245,09
857,802	212,12
857,972	224,9
858,143	224,86
858,314	280,84
858,484	278,38
858,655	255,41
858,826	223,42
858,996	258,44
859,167	212,64
859,338	259,81
859,508	215,33
859,679	249,31
859,849	225,97
860,02	228,03
860,19	214,86
860,361	224,96
860,531	233,42
860,702	138,57
860,872	172,72
861,043	215,14
861,213	155,91
861,384	223,75
861,554	247,3
861,724	258,17
861,895	207,3
862,065	165,33
862,235	190,77
862,406	217,41
862,576	240,96
862,746	187,04
862,916	211,74
863,087	155,71
863,257	203,36
863,427	243,64
863,597	210,26
863,767	198,7
863,937	272,3
864,108	223,9
864,278	294,89
864,448	322,1
864,618	438,01
864,788	659,27
864,958	807,43
865,128	945,56
865,298	1032,6
865,468	1019,08
865,638	1015,35
865,808	863,93
865,978	674,38
866,148	592,08
866,318	475,54
866,487	389,62
866,657	382,84
866,827	309,05
866,997	337,05
867,167	256,89
867,337	273,2
867,506	233,32
867,676	242,26
867,846	210,75
868,016	188,3
868,185	197,37
868,355	158,71
868,525	156,48
868,694	172,25
868,864	140,55
869,034	173,3
869,203	150,9
869,373	175
869,542	143,53
869,712	149,72
869,881	161,52
870,051	193,06
870,22	180,94
870,39	190,92
870,559	202,94
870,729	224,9
870,898	171,96
871,068	143,83
871,237	190,35
871,406	170,45
871,576	163,88
871,745	187,78
871,914	207,85
872,084	152,4
872,253	172,63
872,422	187,59
872,591	166,64
872,761	202,37
872,93	-13,61
873,099	190,32
873,268	147,51
873,437	178,44
873,607	178,38
873,776	160,48
873,945	154,48
874,114	192,44
874,283	143,18
874,452	172,01
874,621	147,56
874,79	135,01
874,959	155,64
875,128	145,81
875,297	147,26
875,466	131,62
875,635	133,01
875,804	138,55
875,973	165,19
876,142	90,09
876,31	148,93
876,479	129,95
876,648	123
876,817	155,9
876,986	107,03
877,155	133,35
877,323	155,96
877,492	106,11
877,661	106,95
877,829	133,62
877,998	144,99
878,167	138,83
878,335	150,16
878,504	170,12
878,673	142,16
878,841	177,51
879,01	141,89
879,178	144,39
879,347	130,85
879,515	128,94
879,684	101,47
879,852	136,46
880,021	122,47
880,189	117,68
880,358	130,31
880,526	15,89
880,695	172,89
880,863	85,08
881,031	123,51
881,2	87,54
881,368	140
881,536	87,46
881,705	139,72
881,873	127,41
882,041	105
882,21	91,81
882,378	94,93
882,546	134,77
882,714	120,81
882,882	142,05
883,05	79,11
883,219	128,86
883,387	134,8
883,555	148,33
883,723	125,19
883,891	110,18
884,059	132,85
884,227	108,02
884,395	100,41
884,563	121,95
884,731	106,49
884,899	94,36
885,067	126,26
885,235	114,53
885,403	103,15
885,571	99,92
885,739	104,08
