Data from Subt10__0__09-53-13-907.txt Node

Date: Mon Feb 19 09:53:13 CET 2024
User: Versuch 234
Spectrometer: USB4F03543
Trigger mode: 4
Integration Time (sec): 1,000000E-1
Scans to average: 10
Electric dark correction enabled: true
Nonlinearity correction enabled: false
Boxcar width: 0
XAxis mode: Wavelengths
Number of Pixels in Spectrum: 3648
>>>>>Begin Spectral Data<<<<<
179,969	-6,91
180,181	-6,91
180,394	-6,91
180,606	33,23
180,819	-4,25
181,031	2,3
181,243	-8,76
181,456	-18,59
181,668	42,03
181,88	16,64
182,093	-21,66
182,305	10,7
182,518	1,89
182,73	12,34
182,942	0,87
183,155	-27,8
183,367	-9,98
183,579	-27,6
183,791	5,58
184,004	8,04
184,216	6,2
184,428	5,17
184,641	17,87
184,853	44,49
185,065	2,92
185,277	-16,74
185,49	12,95
185,702	-3,02
185,914	8,65
186,126	4,56
186,338	-11,01
186,551	-12,44
186,763	14,39
186,975	-2,82
187,187	0,46
187,399	21,35
187,612	-6,91
187,824	3,33
188,036	-24,93
188,248	-11,21
188,46	-6,91
188,672	1,69
188,885	-23,5
189,097	6,81
189,309	11,11
189,521	13,98
189,733	25,04
189,945	-5,89
190,157	22,37
190,369	-3,02
190,581	-21,45
190,794	35,89
191,006	8,65
191,218	-8,14
191,43	29,54
191,642	10,5
191,854	7,01
192,066	17,25
192,278	11,32
192,49	-13,06
192,702	9,06
192,914	19,71
193,126	-11,83
193,338	7,22
193,55	-8,14
193,762	35,28
193,974	-1,38
194,186	3,74
194,398	-0,56
194,61	13,16
194,822	-7,12
195,034	3,74
195,246	21,96
195,457	20,12
195,669	-0,77
195,881	35,89
196,093	31,18
196,305	10,91
196,517	21,76
196,729	9,47
196,941	9,88
197,153	13,77
197,365	47,15
197,576	8,45
197,788	2,51
198	16,03
198,212	15,82
198,424	-5,27
198,636	-12,44
198,847	-3,23
199,059	11,32
199,271	10,29
199,483	0,46
199,695	-9,57
199,906	13,36
200,118	21,55
200,33	-14,9
200,542	8,04
200,753	27,7
200,965	27,9
201,177	-6,91
201,389	-0,15
201,6	35,28
201,812	5,17
202,024	9,68
202,235	-16,74
202,447	-5,89
202,659	-0,77
202,871	-7,53
203,082	-16,95
203,294	8,65
203,506	14,59
203,717	-7,94
203,929	-24,32
204,141	-26,16
204,352	11,72
204,564	-10,8
204,775	11,72
204,987	4,35
205,199	14,8
205,41	18,07
205,622	14,39
205,833	-8,55
206,045	-14,9
206,257	-9,98
206,468	34,46
206,68	12,75
206,891	20,74
207,103	15,62
207,314	-3,84
207,526	12,54
207,737	11,52
207,949	7,42
208,16	4,56
208,372	7,83
208,583	25,86
208,795	-14,49
209,006	14,39
209,218	-13,87
209,429	13,16
209,641	-7,12
209,852	14,59
210,064	2,71
210,275	-3,84
210,487	-3,43
210,698	34,66
210,909	-32,31
211,121	13,98
211,332	-2,82
211,544	-2,61
211,755	13,16
211,966	-12,85
212,178	30,57
212,389	15
212,6	12,95
212,812	1,08
213,023	12,95
213,234	8,24
213,446	29,75
213,657	9,88
213,868	-4,86
214,08	-24,73
214,291	32,82
214,502	12,34
214,714	-9,37
214,925	-22,27
215,136	37,32
215,347	32,41
215,559	-12,44
215,77	20,53
215,981	45,72
216,192	14,59
216,404	10,09
216,615	-2,82
216,826	4,35
217,037	1,89
217,249	6,2
217,46	5,17
217,671	13,98
217,882	27,29
218,093	-4,66
218,304	22,99
218,516	9,06
218,727	12,95
218,938	19,1
219,149	21,55
219,36	30,57
219,571	-17,97
219,782	12,34
219,993	27,29
220,205	9,27
220,416	16,03
220,627	6,6
220,838	-4,04
221,049	19,3
221,26	-5,27
221,471	15
221,682	28,52
221,893	23,6
222,104	18,07
222,315	14,59
222,526	18,48
222,737	19,3
222,948	3,33
223,159	-13,87
223,37	-8,55
223,581	4,76
223,792	22,58
224,003	19,51
224,214	-6,71
224,425	22,78
224,636	31,59
224,847	-29,03
225,058	29,75
225,269	15,41
225,48	23,19
225,691	27,08
225,902	28,31
226,112	-9,98
226,323	-2,41
226,534	-8,14
226,745	15,41
226,956	16,43
227,167	11,32
227,378	37,53
227,589	32,82
227,799	11,52
228,01	14,8
228,221	2,3
228,432	7,01
228,643	44,08
228,853	19,1
229,064	17,66
229,275	0,87
229,486	13,36
229,697	25,24
229,907	-11,21
230,118	-24,32
230,329	-16,33
230,54	17,66
230,75	2,71
230,961	-9,37
231,172	-12,85
231,383	26,47
231,593	36,51
231,804	44,29
232,015	18,07
232,225	-17,97
232,436	10,91
232,647	-0,77
232,857	-7,94
233,068	11,72
233,279	21,35
233,489	-12,44
233,7	17,46
233,91	-20,02
234,121	17,66
234,332	21,35
234,542	-10,19
234,753	-3,84
234,964	25,04
235,174	12,95
235,385	8,04
235,595	-7,73
235,806	-1,59
236,016	-12,65
236,227	18,69
236,437	17,05
236,648	2,92
236,858	-0,15
237,069	7,63
237,279	7,42
237,49	12,75
237,7	15,21
237,911	14,18
238,121	16,23
238,332	16,23
238,542	18,28
238,753	-6,3
238,963	11,32
239,174	17,46
239,384	-15,1
239,595	-2,82
239,805	-11,21
240,015	21,96
240,226	1,69
240,436	-1,79
240,647	2,3
240,857	-0,15
241,067	17,66
241,278	-11,01
241,488	0,67
241,698	-10,19
241,909	-7,73
242,119	45,72
242,329	42,44
242,54	25,24
242,75	-2,2
242,96	53,5
243,171	3,74
243,381	2,3
243,591	36,3
243,801	-25,96
244,012	-5,27
244,222	15,41
244,432	9,47
244,642	-6,71
244,853	2,92
245,063	18,28
245,273	29,13
245,483	10,7
245,694	-9,16
245,904	24,63
246,114	4,15
246,324	31,18
246,534	12,34
246,744	17,05
246,955	4,76
247,165	25,04
247,375	35,48
247,585	6,81
247,795	-31,28
248,005	12,34
248,215	-17,15
248,425	26,88
248,636	15,62
248,846	33,84
249,056	30,36
249,266	-3,23
249,476	1,89
249,686	17,87
249,896	-16,13
250,106	24,01
250,316	13,98
250,526	-2
250,736	-4,45
250,946	18,69
251,156	14,18
251,366	15,21
251,576	-14,28
251,786	21,55
251,996	17,46
252,206	20,33
252,416	7,42
252,626	11,11
252,836	-5,07
253,046	23,6
253,256	-5,07
253,466	24,63
253,676	24,63
253,885	35,89
254,095	8,65
254,305	11,11
254,515	35,69
254,725	8,45
254,935	2,92
255,145	15,41
255,355	30,57
255,564	4,35
255,774	3,33
255,984	31,39
256,194	19,92
256,404	28,31
256,614	20,74
256,823	11,11
257,033	5,99
257,243	16,03
257,453	18,89
257,662	-9,16
257,872	15
258,082	2,3
258,292	12,34
258,501	36,71
258,711	0,46
258,921	25,04
259,131	1,48
259,34	-5,89
259,55	-2,82
259,76	32,2
259,969	9,27
260,179	27,49
260,389	0,05
260,598	-47,26
260,808	6,4
261,018	1,08
261,227	23,19
261,437	21,35
261,647	18,07
261,856	25,86
262,066	15,21
262,275	22,58
262,485	1,28
262,694	5,79
262,904	-17,15
263,114	-2,2
263,323	3,33
263,533	31,59
263,742	-6,09
263,952	-3,43
264,161	-16,74
264,371	26,47
264,58	-10,19
264,79	20,74
264,999	4,76
265,209	29,95
265,418	-19,2
265,628	25,24
265,837	-3,84
266,047	-5,07
266,256	-35,79
266,466	23,19
266,675	2,71
266,884	-16,54
267,094	16,23
267,303	7,42
267,513	-4,66
267,722	-0,97
267,931	-5,07
268,141	9,68
268,35	-19,61
268,559	-14,9
268,769	4,15
268,978	21,15
269,187	19,71
269,397	12,34
269,606	8,86
269,815	24,42
270,025	5,58
270,234	11,11
270,443	8,86
270,653	13,16
270,862	0,26
271,071	29,75
271,28	-17,56
271,49	41,42
271,699	-27,19
271,908	14,8
272,117	28,11
272,327	12,75
272,536	11,32
272,745	0,67
272,954	31,79
273,163	16,64
273,372	6,6
273,582	7,22
273,791	11,52
274	24,83
274,209	-16,95
274,418	35,89
274,627	24,63
274,836	8,86
275,046	18,69
275,255	-4,25
275,464	30,98
275,673	14,18
275,882	27,49
276,091	-2,2
276,3	-0,97
276,509	24,22
276,718	-17,36
276,927	10,7
277,136	-21,45
277,345	9,88
277,554	3,53
277,763	47,97
277,972	31,79
278,181	-25,34
278,39	22,58
278,599	-10,6
278,808	7,22
279,017	57,8
279,226	-2
279,435	22,78
279,644	29,95
279,853	17,66
280,062	-12,44
280,271	-16,74
280,48	9,27
280,688	10,09
280,897	18,69
281,106	7,42
281,315	6,81
281,524	-12,44
281,733	4,76
281,942	-19,4
282,151	-30,46
282,359	2,1
282,568	9,06
282,777	4,76
282,986	-6,09
283,195	25,24
283,403	0,87
283,612	0,26
283,821	25,65
284,03	2,51
284,238	-10,6
284,447	25,45
284,656	-2,61
284,865	10,5
285,073	22,58
285,282	-7,32
285,491	29,34
285,699	-6,71
285,908	23,19
286,117	1,48
286,325	-13,26
286,534	24,42
286,743	12,54
286,951	10,5
287,16	7,83
287,369	0,46
287,577	28,93
287,786	-4,25
287,995	-31,69
288,203	26,06
288,412	0,26
288,62	-16,74
288,829	33,84
289,037	2,92
289,246	10,91
289,455	-4,25
289,663	17,25
289,872	-4,86
290,08	-6,5
290,289	12,95
290,497	16,43
290,706	33,02
290,914	2,92
291,123	-11,62
291,331	-3,23
291,54	8,24
291,748	-7,94
291,957	13,77
292,165	-25,96
292,373	-13,26
292,582	8,24
292,79	-13,67
292,999	9,06
293,207	11,32
293,415	11,93
293,624	-2,2
293,832	10,91
294,041	-3,43
294,249	11,52
294,457	9,27
294,666	35,28
294,874	-16,13
295,082	-2,82
295,291	19,1
295,499	6,6
295,707	12,13
295,915	21,76
296,124	8,24
296,332	-11,62
296,54	-5,07
296,749	32,2
296,957	23,6
297,165	11,32
297,373	0,05
297,581	39,17
297,79	22,78
297,998	5,99
298,206	-29,23
298,414	-10,39
298,622	39,58
298,831	-30,87
299,039	7,63
299,247	-4,86
299,455	-14,08
299,663	-24,73
299,871	1,89
300,08	40,6
300,288	-18,59
300,496	18,07
300,704	56,17
300,912	5,99
301,12	3,94
301,328	7,63
301,536	34,87
301,744	-14,28
301,952	15,82
302,16	13,36
302,368	-4,45
302,576	-20,43
302,784	-8,96
302,992	16,23
303,2	10,09
303,408	8,45
303,616	-5,89
303,824	5,17
304,032	1,28
304,24	22,78
304,448	25,24
304,656	29,95
304,864	31,39
305,072	-7,32
305,28	9,47
305,488	44,08
305,696	-18,18
305,904	25,86
306,111	7,01
306,319	-3,84
306,527	13,57
306,735	-24,11
306,943	9,88
307,151	-9,57
307,359	-6,3
307,566	20,53
307,774	16,03
307,982	-3,02
308,19	4,56
308,398	17,25
308,605	27,49
308,813	-0,77
309,021	33,23
309,229	25,86
309,436	11,11
309,644	-18,59
309,852	-3,64
310,06	1,69
310,267	0,05
310,475	20,33
310,683	16,43
310,89	9,88
311,098	0,05
311,306	7,01
311,513	7,42
311,721	7,83
311,929	26,88
312,136	-0,15
312,344	-10,39
312,552	13,77
312,759	-35,79
312,967	14,59
313,174	-7,53
313,382	1,89
313,589	15,62
313,797	18,28
314,005	10,5
314,212	25,45
314,42	5,99
314,627	-3,02
314,835	21,55
315,042	-1,18
315,25	16,23
315,457	20,12
315,665	-6,3
315,872	-1,59
316,08	13,98
316,287	4,15
316,495	-18,99
316,702	1,48
316,909	-8,76
317,117	31,39
317,324	-4,25
317,532	24,63
317,739	-11,01
317,946	0,26
318,154	23,19
318,361	-4,66
318,569	24,63
318,776	12,34
318,983	-17,77
319,191	16,23
319,398	29,13
319,605	8,04
319,813	19,71
320,02	2,92
320,227	28,93
320,434	-0,15
320,642	-21,45
320,849	20,12
321,056	-7,94
321,264	-4,66
321,471	1,69
321,678	-2,82
321,885	35,48
322,092	0,67
322,3	-25,14
322,507	29,95
322,714	-3,02
322,921	17,25
323,128	-23,09
323,336	-1,18
323,543	4,56
323,75	19,51
323,957	7,83
324,164	-0,15
324,371	11,52
324,578	26,88
324,786	30,77
324,993	30,16
325,2	-8,55
325,407	17,25
325,614	-17,56
325,821	3,94
326,028	13,16
326,235	21,96
326,442	3,33
326,649	39,78
326,856	-18,18
327,063	-4,66
327,27	-7,53
327,477	19,71
327,684	-14,49
327,891	-13,47
328,098	0,46
328,305	11,32
328,512	-5,89
328,719	12,34
328,926	4,35
329,133	-1,38
329,34	39,58
329,546	21,15
329,753	-5,27
329,96	1,08
330,167	-5,68
330,374	-17,36
330,581	19,71
330,788	8,45
330,995	8,45
331,201	7,22
331,408	12,54
331,615	26,67
331,822	-0,15
332,029	-4,45
332,235	0,05
332,442	38,14
332,649	9,27
332,856	2,1
333,062	-0,97
333,269	26,67
333,476	33,64
333,683	-6,71
333,889	-20,02
334,096	5,79
334,303	16,64
334,509	1,48
334,716	-13,87
334,923	6,6
335,129	1,28
335,336	5,79
335,543	-0,36
335,749	-15,92
335,956	40,4
336,163	21,76
336,369	8,86
336,576	12,75
336,782	59,85
336,989	11,52
337,196	46,95
337,402	-10,39
337,609	40,4
337,815	24,22
338,022	-3,02
338,228	12,54
338,435	18,28
338,641	13,77
338,848	-1,79
339,054	-23,91
339,261	-44,59
339,467	-22,89
339,674	14,39
339,88	-7,94
340,087	-2
340,293	15,21
340,5	29,75
340,706	7,42
340,912	-2
341,119	9,06
341,325	18,07
341,532	12,75
341,738	17,05
341,944	40,19
342,151	20,74
342,357	-0,77
342,563	17,25
342,77	23,19
342,976	-8,76
343,182	6,6
343,389	48,18
343,595	-5,07
343,801	10,09
344,007	-0,15
344,214	13,98
344,42	40,6
344,626	29,54
344,832	0,87
345,039	26,27
345,245	-17,77
345,451	4,76
345,657	19,1
345,864	27,7
346,07	27,9
346,276	15
346,482	-1,59
346,688	26,88
346,894	7,22
347,1	-2,2
347,307	20,33
347,513	10,7
347,719	10,91
347,925	19,51
348,131	13,57
348,337	41,42
348,543	10,29
348,749	34,46
348,955	5,99
349,161	-3,84
349,367	39,37
349,573	21,55
349,779	12,13
349,985	32,2
350,191	32,82
350,397	34,87
350,603	-2,82
350,809	15
351,015	8,86
351,221	-4,45
351,427	5,38
351,633	-3,84
351,839	6,6
352,045	-10,8
352,251	-10,19
352,457	7,83
352,663	12,34
352,869	10,91
353,075	7,83
353,28	23,81
353,486	3,53
353,692	23,6
353,898	5,17
354,104	7,83
354,31	28,72
354,515	10,91
354,721	8,04
354,927	21,76
355,133	17,25
355,339	25,65
355,544	8,04
355,75	-13,67
355,956	40,19
356,162	13,36
356,367	23,19
356,573	24,63
356,779	15,62
356,984	-0,97
357,19	14,39
357,396	31,18
357,602	-1,38
357,807	7,42
358,013	28,31
358,218	11,32
358,424	22,78
358,63	-11,83
358,835	-10,6
359,041	6,2
359,247	29,13
359,452	12,34
359,658	18,48
359,863	13,98
360,069	8,04
360,274	4,56
360,48	25,24
360,685	18,07
360,891	0,05
361,097	29,13
361,302	29,54
361,508	4,15
361,713	8,04
361,918	2,3
362,124	17,66
362,329	29,95
362,535	21,55
362,74	6,81
362,946	43,67
363,151	7,22
363,357	-5,27
363,562	35,28
363,767	19,71
363,973	14,8
364,178	47,56
364,383	19,1
364,589	24,22
364,794	-1,38
365	12,95
365,205	-2,41
365,41	6,6
365,615	10,29
365,821	20,53
366,026	-4,86
366,231	4,15
366,437	18,28
366,642	6,4
366,847	10,29
367,052	9,88
367,258	15,62
367,463	22,37
367,668	24,83
367,873	6,6
368,078	6,81
368,284	23,4
368,489	31,18
368,694	31,79
368,899	10,91
369,104	18,48
369,309	2,3
369,515	41,42
369,72	25,45
369,925	17,87
370,13	45,11
370,335	-0,15
370,54	8,04
370,745	7,42
370,95	-2,2
371,155	31,79
371,36	7,63
371,565	33,02
371,77	20,74
371,975	5,38
372,18	9,27
372,385	21,76
372,59	34,05
372,795	-1,59
373	43,67
373,205	19,92
373,41	34,46
373,615	-1,59
373,82	-5,48
374,025	2,71
374,23	52,07
374,435	21,35
374,64	22,17
374,845	43,06
375,05	15,21
375,254	20,12
375,459	30,77
375,664	16,23
375,869	-3,02
376,074	36,1
376,279	-0,97
376,483	50,84
376,688	42,24
376,893	25,45
377,098	32,82
377,303	30,98
377,507	13,77
377,712	40,6
377,917	-14,49
378,122	-1,38
378,326	19,1
378,531	11,72
378,736	44,08
378,94	12,54
379,145	42,85
379,35	-0,15
379,554	47,97
379,759	17,87
379,964	41,22
380,168	38,96
380,373	23,19
380,578	42,44
380,782	48,79
380,987	38,14
381,191	26,67
381,396	-13,87
381,601	23,4
381,805	63,33
382,01	33,64
382,214	10,29
382,419	7,42
382,623	22,37
382,828	38,55
383,032	12,34
383,237	42,85
383,441	26,47
383,646	27,9
383,85	45,31
384,055	60,26
384,259	31,79
384,464	27,9
384,668	22,78
384,872	21,96
385,077	48,38
385,281	40,19
385,486	39,78
385,69	55,35
385,894	55,96
386,099	52,89
386,303	35,28
386,507	19,92
386,712	-0,15
386,916	8,86
387,12	43,26
387,325	21,55
387,529	53,5
387,733	45,31
387,937	33,64
388,142	38,35
388,346	22,17
388,55	32,41
388,754	6,4
388,959	8,04
389,163	22,99
389,367	30,57
389,571	44,29
389,775	33,23
389,98	44,9
390,184	10,09
390,388	56,37
390,592	27,49
390,796	43,88
391	38,76
391,204	41,62
391,409	60,26
391,613	5,79
391,817	34,87
392,021	37,94
392,225	46,95
392,429	40,81
392,633	59,03
392,837	32,41
393,041	33,43
393,245	53,91
393,449	42,03
393,653	62,1
393,857	50,43
394,061	61,49
394,265	68,66
394,469	52,89
394,673	58,01
394,877	44,29
395,081	98,97
395,285	57,19
395,489	88,93
395,693	43,26
395,896	55,96
396,1	50,02
396,304	73,16
396,508	36,51
396,712	88,52
396,916	65,79
397,12	44,08
397,323	68,25
397,527	61,08
397,731	49
397,935	82,79
398,139	63,95
398,342	74,19
398,546	114,33
398,75	84,22
398,954	72,14
399,157	42,85
399,361	66,41
399,565	51,05
399,769	84,63
399,972	55,55
400,176	79,31
400,38	95,08
400,583	114,33
400,787	88,11
400,991	45,52
401,194	72,14
401,398	108,59
401,601	69,48
401,805	78,08
402,009	90,98
402,212	102,65
402,416	61,7
402,619	98,35
402,823	111,26
403,026	90,16
403,23	102,04
403,433	96,31
403,637	94,46
403,841	69,48
404,044	111,67
404,247	85,86
404,451	79,51
404,654	103,06
404,858	111,67
405,061	105,52
405,265	122,52
405,468	107,36
405,672	114,12
405,875	137,06
406,078	129,89
406,282	102,86
406,485	109,82
406,689	137,47
406,892	109
407,095	110,44
407,299	113,51
407,502	120,06
407,705	143,82
407,909	122,72
408,112	122,11
408,315	163,07
408,518	122,72
408,722	116,79
408,925	104,09
409,128	121,5
409,331	121,09
409,535	144,64
409,738	132,15
409,941	152,42
410,144	149,55
410,347	148,12
410,551	132,96
410,754	144,02
410,957	158,36
411,16	136,86
411,363	150,37
411,566	131,33
411,769	165,53
411,973	128,87
412,176	133,99
412,379	182,73
412,582	147,71
412,785	162,05
412,988	139,11
413,191	137,67
413,394	132,55
413,597	150,58
413,8	178,22
414,003	175,56
414,206	126,41
414,409	137,27
414,612	153,65
414,815	137,27
415,018	171,26
415,221	155,7
415,424	193,38
415,627	177,81
415,83	158,15
416,033	176,18
416,235	184,16
416,438	155,08
416,641	169,62
416,844	191,13
417,047	175,97
417,25	168,6
417,453	165,73
417,655	163,07
417,858	179,66
418,061	190,31
418,264	172,9
418,467	194,4
418,669	195,43
418,872	167,78
419,075	175,15
419,278	178,63
419,48	170,24
419,683	205,87
419,886	188,67
420,089	209,35
420,291	231,06
420,494	202,6
420,697	184,37
420,899	197,68
421,102	177,81
421,305	196,04
421,507	196,04
421,71	195,22
421,912	190,51
422,115	181,3
422,318	184,98
422,52	203,21
422,723	162,86
422,925	209,15
423,128	192,97
423,33	223,69
423,533	187,24
423,735	216,11
423,938	191,74
424,14	189,69
424,343	231,27
424,545	201,37
424,748	178,02
424,95	201,98
425,153	186,01
425,355	197,48
425,558	214,27
425,76	238,64
425,962	197,68
426,165	218,16
426,367	228,6
426,57	227,99
426,772	202,6
426,974	214,88
427,177	217,96
427,379	208,33
427,581	189,69
427,784	221,85
427,986	194,2
428,188	223,48
428,39	234,75
428,593	213,86
428,795	224,3
428,997	253,59
429,2	220,21
429,402	259,32
429,604	237,82
429,806	234,75
430,008	243,35
430,211	212,02
430,413	253,79
430,615	215,91
430,817	183,55
431,019	246,01
431,221	262,81
431,423	189,69
431,626	231,27
431,828	231,68
432,03	255,64
432,232	237,21
432,434	247,65
432,636	261,17
432,838	256,66
433,04	227,17
433,242	248,06
433,444	240,48
433,646	230,04
433,848	289,63
434,05	267,72
434,252	247,65
434,454	235,16
434,656	260,96
434,858	278,57
435,06	269,56
435,262	259,12
435,464	239,66
435,666	276,12
435,868	277,96
436,07	282,06
436,271	280,83
436,473	287,38
436,675	283,69
436,877	300,9
437,079	224,51
437,281	273,86
437,482	283,29
437,684	290,86
437,886	263,62
438,088	285,95
438,29	284,51
438,491	280,62
438,693	270,38
438,895	276,53
439,097	306,84
439,298	288,81
439,5	319,74
439,702	290,45
439,903	243,96
440,105	316,26
440,307	306,43
440,508	315,23
440,71	320,56
440,912	290,04
441,113	309,29
441,315	307,86
441,517	310,52
441,718	322,2
441,92	276,53
442,121	324,04
442,323	325,27
442,524	318,51
442,726	348,41
442,928	319,33
443,129	310,93
443,331	309,29
443,532	322,2
443,734	317,69
443,935	308,48
444,136	316,05
444,338	302,95
444,539	328,55
444,741	305,61
444,942	327,11
445,144	337,97
445,345	336,74
445,546	320,56
445,748	333,26
445,949	319,33
446,151	304,17
446,352	339,81
446,553	302,74
446,755	322,4
446,956	341,86
447,157	325,06
447,359	355,17
447,56	328,55
447,761	371,55
447,962	352,3
448,164	365,61
448,365	331,21
448,566	345,54
448,767	306,43
448,969	320,35
449,17	329,36
449,371	342,47
449,572	349,84
449,773	329,77
449,974	347,59
450,176	345,13
450,377	374,83
450,578	365,41
450,779	346,36
450,98	319,12
451,181	356,4
451,382	378,52
451,583	388,96
451,784	356,19
451,986	385,48
452,187	326,29
452,388	337,35
452,589	353,74
452,79	373,6
452,991	367,66
453,192	371,35
453,393	368,69
453,594	363,36
453,795	373,19
453,995	332,03
454,196	395,72
454,397	412,51
454,598	369,1
454,799	389,78
455	404,32
455,201	380,97
455,402	377,9
455,603	340,63
455,804	399,81
456,004	420,7
456,205	413,13
456,406	381,79
456,607	405,75
456,808	432,38
457,008	395,31
457,209	380,56
457,41	445,07
457,611	422,55
457,811	410,87
458,012	376,88
458,213	419,27
458,414	445,28
458,614	402,07
458,815	416,81
459,016	407,8
459,216	454,5
459,417	440,98
459,618	452,45
459,818	422,55
460,019	438,32
460,22	426,85
460,42	430,94
460,621	423,57
460,821	428,08
461,022	458,39
461,223	465,14
461,423	489,11
461,624	406,16
461,824	452,86
462,025	453,68
462,225	449,58
462,426	487,47
462,626	429,31
462,827	461,05
463,027	469,86
463,228	471,49
463,428	477,23
463,628	472,52
463,829	501,8
464,029	470,88
464,23	472,72
464,43	499,14
464,63	484,4
464,831	480,5
465,031	472,72
465,231	506,92
465,432	540,1
465,632	510,41
465,832	500,98
466,033	498,53
466,233	525,76
466,433	521,26
466,634	540,71
466,834	569,59
467,034	490,95
467,234	563,04
467,435	562,83
467,635	554,44
467,835	516,96
468,035	561,6
468,235	500,78
468,436	552,59
468,636	563,04
468,836	571,02
469,036	578,4
469,236	528,43
469,436	554,64
469,636	574,51
469,836	598,88
470,037	599,49
470,237	580,65
470,437	622,22
470,637	573,89
470,837	607,48
471,037	641,88
471,237	627,75
471,437	640,25
471,637	669,94
471,837	683,87
472,037	649,87
472,237	673,22
472,437	704,96
472,637	705,58
472,837	676,09
473,036	698,61
473,236	718,07
473,436	677,72
473,636	731,18
473,836	695,54
474,036	720,12
474,236	773,98
474,436	770,29
474,635	736,09
474,835	746,54
475,035	803,26
475,235	821,29
475,435	803,67
475,634	770,91
475,834	806,95
476,034	834,39
476,234	829,48
476,433	852,21
476,633	855,69
476,833	864,09
477,033	835,83
477,232	889,69
477,432	846,07
477,632	901,98
477,831	884,98
478,031	900,13
478,231	906,07
478,43	916,31
478,63	909,96
478,829	935,56
479,029	910,58
479,229	950,31
479,428	969,15
479,628	958,09
479,827	957,89
480,027	970,17
480,226	974,68
480,426	1012,57
480,625	979,8
480,825	1045,74
481,024	1009,09
481,224	1005,81
481,423	1067,86
481,623	1032,64
481,822	1084,25
482,021	1053,94
482,221	1123,36
482,42	1099,61
482,62	1104,73
482,819	1107,8
483,018	1105,75
483,218	1086,7
483,417	1147,73
483,616	1173,74
483,816	1140,56
484,015	1204,87
484,214	1157,36
484,414	1187,67
484,613	1160,02
484,812	1173,33
485,011	1206,51
485,211	1179,68
485,41	1231,49
485,609	1227,19
485,808	1204,67
486,008	1231,7
486,207	1217,98
486,406	1231,9
486,605	1238,25
486,804	1245,01
487,003	1309,11
487,203	1268,97
487,402	1317,71
487,601	1280,24
487,8	1270,41
487,999	1294,98
488,198	1305,22
488,397	1349,87
488,596	1323,86
488,795	1341,27
488,994	1369,53
489,193	1350,48
489,392	1363,59
489,591	1348,02
489,79	1373,62
489,989	1382,43
490,188	1359,08
490,387	1407,01
490,586	1413,35
490,785	1438,13
490,984	1401,48
491,183	1456,36
491,382	1391,65
491,581	1359,29
491,779	1393,9
491,978	1431,58
492,177	1416,84
492,376	1463,73
492,575	1505,51
492,774	1449,19
492,972	1504,9
493,171	1496,91
493,37	1506,33
493,569	1473,36
493,768	1489,33
493,966	1451,65
494,165	1498,35
494,364	1481,76
494,563	1466,19
494,761	1537,26
494,96	1493,23
495,159	1546,68
495,357	1478,48
495,556	1506,13
495,755	1531,52
495,953	1524,35
496,152	1533,57
496,35	1512,68
496,549	1521,69
496,748	1539,71
496,946	1505,92
497,145	1524,35
497,343	1551,59
497,542	1551,39
497,74	1548,52
497,939	1594,39
498,137	1609,14
498,336	1575,55
498,534	1535
498,733	1585,79
498,931	1570,43
499,13	1601,77
499,328	1605,04
499,527	1612,83
499,725	1581,08
499,924	1569
500,122	1575,96
500,32	1577,4
500,519	1611,8
500,717	1586,41
500,915	1623,48
501,114	1640,27
501,312	1592,76
501,51	1640,27
501,709	1605,86
501,907	1607,3
502,105	1620,4
502,304	1639,45
502,502	1593,99
502,7	1669,35
502,898	1642,93
503,097	1642,73
503,295	1649,49
503,493	1654,4
503,691	1632,08
503,889	1629,42
504,088	1630,44
504,286	1670,78
504,484	1616,31
504,682	1652,56
504,88	1661,77
505,078	1710,72
505,276	1688,4
505,474	1707,65
505,672	1676,11
505,871	1690,65
506,069	1689,63
506,267	1718,3
506,465	1689,83
506,663	1689,01
506,861	1690,04
507,059	1700,48
507,257	1683,48
507,455	1698,43
507,653	1746,15
507,851	1728,74
508,049	1708,88
508,246	1790,39
508,444	1741,23
508,642	1744,31
508,84	1758,23
509,038	1760,28
509,236	1754,96
509,434	1754,14
509,632	1717,48
509,829	1795,3
510,027	1747,58
510,225	1754,96
510,423	1777,69
510,621	1784,65
510,818	1783,22
511,016	1872,51
511,214	1837,49
511,412	1875,38
511,609	1816,8
511,807	1809,02
512,005	1806,97
512,203	1838,72
512,4	1852,64
512,598	1855,92
512,796	1865,34
512,993	1859,61
513,191	1826,43
513,389	1893,4
513,586	1923,09
513,784	1937,22
513,981	1938,04
514,179	1959,96
514,377	1894,42
514,574	1941,32
514,772	1925,35
514,969	1955,04
515,167	1931,49
515,364	1968,97
515,562	1949,72
515,759	1997,84
515,957	1985,56
516,154	2039,62
516,352	2037,17
516,549	1964,05
516,746	2015,66
516,944	2020,78
517,141	2065,63
517,339	2022,63
517,536	2039,62
517,733	2049,04
517,931	2095,33
518,128	2104,54
518,325	2075,67
518,523	2101,06
518,72	2072,19
518,917	2128,1
519,115	2125,43
519,312	2110,69
519,509	2139,15
519,707	2134,85
519,904	2184,62
520,101	2146,12
520,298	2170,9
520,495	2144,68
520,693	2176,63
520,89	2209,2
521,087	2204,48
521,284	2237,05
521,481	2223,74
521,678	2220,66
521,876	2202,23
522,073	2219,43
522,27	2227,22
522,467	2227,42
522,664	2223,53
522,861	2277,8
523,058	2260,8
523,255	2264,9
523,452	2292,14
523,649	2280,67
523,846	2301,56
524,043	2296,03
524,24	2326,34
524,437	2311,39
524,634	2317,33
524,831	2369,35
525,028	2349,89
525,225	2363,2
525,422	2351,53
525,619	2410,31
525,816	2324,91
526,013	2411,94
526,209	2355,22
526,406	2339,24
526,603	2371,6
526,8	2388,6
526,997	2382,25
527,194	2439,59
527,39	2378,97
527,587	2370,58
527,784	2422,8
527,981	2434,88
528,177	2438,98
528,374	2463,35
528,571	2435,29
528,768	2417,06
528,964	2451,88
529,161	2446,15
529,358	2486,69
529,554	2492,43
529,751	2463,35
529,948	2413,79
530,144	2423,21
530,341	2492,43
530,537	2449,63
530,734	2446,15
530,931	2475,43
531,127	2473,38
531,324	2502,26
531,52	2490,18
531,717	2528,27
531,913	2537,48
532,11	2491
532,306	2520,69
532,503	2524,99
532,699	2531,95
532,896	2508,81
533,092	2560,63
533,289	2564,31
533,485	2597,08
533,682	2556,74
533,878	2548,95
534,074	2550,8
534,271	2553,25
534,467	2541,79
534,664	2549,36
534,86	2533,59
535,056	2578,85
535,253	2561,04
535,449	2620,63
535,645	2572,71
535,841	2581,93
536,038	2620,22
536,234	2600,15
536,43	2595,85
536,626	2594,62
536,823	2613,87
537,019	2580,7
537,215	2558,17
537,411	2607,73
537,607	2580,9
537,804	2628
538	2592,37
538,196	2609,16
538,392	2577,62
538,588	2631,49
538,784	2613,46
538,98	2648,89
539,176	2609,78
539,373	2671,63
539,569	2650,53
539,765	2637,22
539,961	2681,66
540,157	2653,81
540,353	2608,14
540,549	2680,64
540,745	2667,12
540,941	2683,3
541,137	2658,31
541,333	2592,17
541,528	2720,98
541,724	2670,4
541,92	2646,44
542,116	2708,49
542,312	2687,4
542,508	2676,34
542,704	2685,96
542,9	2693,13
543,096	2664,87
543,291	2679,41
543,487	2707,67
543,683	2676,75
543,879	2688,62
544,075	2706,24
544,27	2716,68
544,466	2744,53
544,662	2689,65
544,858	2759,69
545,053	2701,73
545,249	2754,16
545,445	2729,79
545,64	2765,63
545,836	2726,31
546,032	2766,24
546,227	2760,3
546,423	2780,37
546,619	2739,62
546,814	2757,23
547,01	2716,68
547,205	2758,05
547,401	2691,29
547,597	2752,93
547,792	2755,39
547,988	2740,03
548,183	2695,18
548,379	2774,43
548,574	2749,86
548,77	2763,79
548,965	2719,75
549,161	2762,76
549,356	2722,83
549,552	2785,9
549,747	2788,36
549,942	2766,86
550,138	2795,32
550,333	2774,23
550,529	2764,19
550,724	2823,79
550,919	2736,34
551,115	2805,36
551,31	2806,38
551,505	2812,73
551,701	2779,76
551,896	2796,55
552,091	2769,72
552,287	2821,74
552,482	2790,61
552,677	2785,7
552,872	2755,8
553,067	2795,94
553,263	2795,53
553,458	2813,14
553,653	2838,33
553,848	2891,17
554,043	2806,59
554,239	2837,1
554,434	2822,56
554,629	2837,1
554,824	2844,88
555,019	2860,24
555,214	2848,57
555,409	2829,12
555,604	2851,23
555,799	2835,67
555,994	2813,55
556,189	2830,34
556,384	2855,74
556,579	2876,22
556,774	2826,04
556,969	2836,28
557,164	2812,12
557,359	2834,03
557,554	2841,61
557,749	2887,89
557,944	2849,8
558,139	2877,45
558,334	2837,1
558,529	2884,41
558,724	2846,32
558,918	2850
559,113	2833,21
559,308	2857,17
559,503	2899,97
559,698	2903,66
559,893	2870,07
560,087	2848,98
560,282	2885,64
560,477	2885,43
560,672	2873,56
560,866	2855,94
561,061	2852,46
561,256	2872,53
561,45	2822,56
561,645	2918,61
561,84	2845,5
562,034	2893,22
562,229	2888,92
562,424	2918,82
562,618	2885,43
562,813	2900,38
563,008	2876,22
563,202	2930,49
563,397	2843,04
563,591	2874,78
563,786	2929,47
563,98	2954,04
564,175	2906,94
564,369	2858,81
564,564	2869,26
564,758	2949,95
564,953	2872,53
565,147	2946,67
565,342	2926,8
565,536	2904,89
565,731	2880,52
565,925	2948,72
566,119	2899,97
566,314	2912,67
566,508	2887,48
566,703	2949,95
566,897	2923,73
567,091	2919,43
567,286	2956,29
567,48	2936,22
567,674	2884,21
567,868	2949,13
568,063	2884,62
568,257	3007,7
568,451	2941,96
568,646	2934,59
568,84	2982,51
569,034	2990,7
569,228	2928,44
569,422	2955,07
569,616	2909,4
569,811	2943,8
570,005	2936,84
570,199	2950,15
570,393	2983,33
570,587	3009,75
570,781	3015,69
570,975	2987,63
571,169	2982,1
571,364	2980,05
571,558	2983,74
571,752	3018,96
571,946	2970,22
572,14	3018,14
572,334	2992,34
572,528	3019,17
572,722	2953,63
572,916	2975,75
573,109	2989,06
573,303	2998,07
573,497	3034,73
573,691	3047,84
573,885	2991,72
574,079	3096,78
574,273	3027,36
574,467	3013,43
574,661	3047,02
574,854	3055,83
575,048	3024,49
575,242	3109,48
575,436	3017,73
575,63	3048,66
575,823	3042,92
576,017	3056,44
576,211	2986,81
576,405	3118,29
576,598	3046,2
576,792	3055,62
576,986	3069,75
577,18	3061,97
577,373	3077,33
577,567	3051,12
577,761	3031,86
577,954	3104,16
578,148	3083,27
578,341	3111,94
578,535	3102,31
578,729	3090,03
578,922	3061,15
579,116	3102,93
579,309	3086,34
579,503	3120,75
579,696	3103,95
579,89	3082,45
580,083	3078,97
580,277	3108,87
580,47	3101,29
580,664	3125,87
580,857	3095,76
581,051	3134,47
581,244	3088,39
581,437	3153,72
581,631	3122,38
581,824	3137,74
582,018	3166,42
582,211	3169,9
582,404	3143,48
582,598	3126,28
582,791	3143,48
582,984	3125,66
583,178	3137,74
583,371	3120,54
583,564	3100,47
583,757	3163,34
583,951	3136,72
584,144	3087,36
584,337	3084,91
584,53	3184,44
584,723	3160,07
584,917	3138,36
585,11	3190,99
585,303	3208,81
585,496	3126,28
585,689	3214,34
585,882	3173,17
586,075	3183,41
586,268	3173,17
586,462	3158,63
586,655	3158,02
586,848	3218,23
587,041	3186,08
587,234	3244,44
587,427	3183,82
587,62	3257,76
587,813	3161,71
588,006	3230,11
588,199	3225,81
588,392	3181,37
588,585	3212,09
588,777	3202,26
588,97	3220,48
589,163	3232,57
589,356	3229,7
589,549	3194,47
589,742	3194,68
589,935	3211,27
590,128	3208,19
590,32	3207,17
590,513	3168,87
590,706	3253,25
590,899	3237,68
591,092	3254,48
591,284	3207,78
591,477	3245,88
591,67	3261,65
591,863	3263,69
592,055	3247,92
592,248	3243,62
592,441	3263,28
592,633	3325,95
592,826	3287,86
593,019	3248,33
593,211	3236,87
593,404	3275,57
593,596	3244,85
593,789	3226,83
593,982	3176,25
594,174	3266,36
594,367	3250,18
594,559	3331,07
594,752	3261,85
594,944	3291,14
595,137	3292,37
595,329	3297,69
595,522	3273,93
595,714	3334,76
595,907	3263,69
596,099	3255,71
596,292	3304,65
596,484	3307,73
596,676	3322,27
596,869	3299,12
597,061	3304,04
597,253	3284,58
597,446	3263,28
597,638	3315,1
597,83	3284,58
598,023	3320,22
598,215	3272,09
598,407	3311,62
598,6	3266,97
598,792	3308,54
598,984	3248,74
599,176	3270,45
599,369	3354,01
599,561	3316,12
599,753	3303,02
599,945	3282,74
600,137	3316,33
600,329	3344,59
600,522	3313,26
600,714	3346,43
600,906	3314,48
601,098	3339,26
601,29	3311
601,482	3334,96
601,674	3388,21
601,866	3316,33
602,058	3255,5
602,25	3265,95
602,442	3282,33
602,634	3280,28
602,826	3269,84
603,018	3302,2
603,21	3348,48
603,402	3306,7
603,594	3290,93
603,786	3285,61
603,978	3255,71
604,17	3290,11
604,362	3294,62
604,554	3337,83
604,745	3296,87
604,937	3344,59
605,129	3300,56
605,321	3266,56
605,513	3338,65
605,704	3367,32
605,896	3314,69
606,088	3288,88
606,28	3247,52
606,471	3283,76
606,663	3284,99
606,855	3338,45
607,047	3312,64
607,238	3335,17
607,43	3248,54
607,622	3359,13
607,813	3323,7
608,005	3291,34
608,197	3247,92
608,388	3322,27
608,58	3288,47
608,771	3283,56
608,963	3278,23
609,154	3312,44
609,346	3272,91
609,537	3298,3
609,729	3258,98
609,921	3311
610,112	3250,18
610,303	3193,04
610,495	3248,74
610,686	3277,21
610,878	3249,36
611,069	3259,6
611,261	3243,83
611,452	3239,32
611,643	3239,12
611,835	3277,21
612,026	3239,12
612,217	3210,86
612,409	3248,74
612,6	3256,53
612,791	3210,24
612,983	3178,29
613,174	3253,86
613,365	3261,03
613,557	3206,76
613,748	3222,53
613,939	3176,66
614,13	3258,37
614,321	3197,95
614,513	3247,72
614,704	3217
614,895	3211,27
615,086	3242,19
615,277	3250,59
615,468	3241,17
615,659	3273,52
615,851	3253,25
616,042	3212,9
616,233	3200,41
616,424	3246,08
616,615	3285,2
616,806	3239,94
616,997	3226,42
617,188	3270,66
617,379	3300,15
617,57	3290,93
617,761	3292,98
617,952	3307,52
618,143	3303,42
618,334	3283,15
618,524	3267,99
618,715	3312,64
618,906	3297,69
619,097	3301,17
619,288	3298,3
619,479	3339,88
619,67	3376,95
619,86	3356,47
620,051	3402,34
620,242	3366,3
620,433	3363,23
620,624	3388,01
620,814	3411,76
621,005	3422
621,196	3414,63
621,386	3389,64
621,577	3449,24
621,768	3418,73
621,958	3453,75
622,149	3481,39
622,34	3505,35
622,53	3476,27
622,721	3492,04
622,912	3518,87
623,102	3556,76
623,293	3512,93
623,483	3586,86
623,674	3579,29
623,864	3585,43
624,055	3580,92
624,245	3607,34
624,436	3638,88
624,626	3593,21
624,817	3602,63
625,007	3631,51
625,198	3625,78
625,388	3591,37
625,579	3617,99
625,769	3631,71
625,959	3661,2
626,15	3617,99
626,34	3690,29
626,531	3668,17
626,721	3666,12
626,911	3664,28
627,101	3698,89
627,292	3621,06
627,482	3646,87
627,672	3730,02
627,863	3706,26
628,053	3718,96
628,243	3718,75
628,433	3742,92
628,623	3743,94
628,814	3728,79
629,004	3731,66
629,194	3726,13
629,384	3723,67
629,574	3762,58
629,764	3765,86
629,955	3682,09
630,145	3735,34
630,335	3718,55
630,525	3772,2
630,715	3743,53
630,905	3733,91
631,095	3723,67
631,285	3760,74
631,475	3699,5
631,665	3737,39
631,855	3783,47
632,045	3768,11
632,235	3726,54
632,425	3750,09
632,615	3734,73
632,805	3767,08
632,994	3669,19
633,184	3792,89
633,374	3695
633,564	3711,38
633,754	3750,7
633,944	3708,51
634,133	3730,02
634,323	3773,43
634,513	3731,25
634,703	3801,08
634,893	3742,3
635,082	3710,56
635,272	3749,27
635,462	3719,98
635,651	3739,23
635,841	3744,15
636,031	3667,35
636,221	3720,39
636,41	3708,1
636,6	3730,02
636,789	3682,5
636,979	3710,56
637,169	3673,08
637,358	3741,28
637,548	3706,26
637,737	3716,7
637,927	3790,43
638,116	3759,92
638,306	3676,56
638,495	3742,71
638,685	3725,31
638,874	3712,4
639,064	3757,66
639,253	3743,33
639,443	3740,05
639,632	3746,81
639,822	3671,65
640,011	3693,15
640,2	3684,76
640,39	3743,12
640,579	3701,96
640,768	3732,47
640,958	3700,94
641,147	3675,13
641,336	3710,15
641,526	3713,63
641,715	3717,93
641,904	3716,91
642,093	3644,62
642,283	3706,87
642,472	3654,24
642,661	3684,35
642,85	3665,3
643,039	3669,4
643,228	3650,15
643,418	3642,36
643,607	3679,23
643,796	3647,89
643,985	3635,81
644,174	3679,64
644,363	3700,12
644,552	3717,73
644,741	3610,01
644,93	3643,18
645,119	3592,19
645,308	3687,83
645,497	3638,27
645,686	3625,98
645,875	3690,29
646,064	3652,6
646,253	3610,21
646,442	3724,08
646,631	3690,49
646,82	3689,88
647,009	3643,39
647,198	3666,94
647,387	3696,63
647,575	3645,64
647,764	3721,62
647,953	3639,91
648,142	3679,02
648,331	3694,18
648,519	3649,74
648,708	3680,46
648,897	3645,03
649,086	3706,26
649,274	3679,84
649,463	3668,99
649,652	3703,8
649,84	3660,39
650,029	3693,77
650,218	3686,8
650,406	3627
650,595	3664,69
650,784	3665,92
650,972	3666,73
651,161	3608,78
651,349	3604,27
651,538	3667,55
651,726	3645,03
651,915	3617,79
652,104	3676,77
652,292	3656,49
652,481	3610,42
652,669	3652,19
652,857	3663,66
653,046	3615,94
653,234	3670,01
653,423	3627,41
653,611	3677,79
653,8	3617,58
653,988	3658,34
654,176	3651,78
654,365	3614,1
654,553	3664,69
654,741	3638,27
654,93	3601,61
655,118	3597,1
655,306	3613,08
655,494	3647,89
655,683	3599,15
655,871	3632,74
656,059	3620,66
656,247	3608,98
656,436	3584
656,624	3615,33
656,812	3616,56
657	3600,99
657,188	3594,24
657,376	3663,05
657,564	3647,07
657,753	3672,88
657,941	3566,38
658,129	3628,03
658,317	3580,51
658,505	3597,72
658,693	3651,99
658,881	3648,92
659,069	3530,75
659,257	3598,54
659,445	3622,7
659,633	3603,25
659,821	3627,21
660,009	3639,5
660,197	3574,58
660,384	3622,29
660,572	3584,61
660,76	3584,82
660,948	3581,13
661,136	3618,81
661,324	3560,85
661,512	3626,39
661,699	3572,32
661,887	3581,13
662,075	3624,34
662,263	3565,56
662,451	3577,44
662,638	3564,75
662,826	3577,65
663,014	3606,73
663,201	3595,87
663,389	3533
663,577	3548,57
663,764	3543,86
663,952	3543,04
664,14	3576,01
664,327	3587,48
664,515	3576,42
664,702	3553,89
664,89	3573,76
665,078	3544,27
665,265	3561,88
665,453	3555,94
665,64	3568,64
665,828	3525,63
666,015	3538,33
666,203	3573,76
666,39	3575,6
666,578	3580,72
666,765	3594,24
666,952	3615,13
667,14	3614,31
667,327	3586,25
667,515	3563,11
667,702	3566,18
667,889	3564,75
668,077	3574,99
668,264	3563,11
668,451	3564,95
668,638	3602,43
668,826	3549,59
669,013	3576,21
669,2	3526,04
669,388	3543,04
669,575	3521,12
669,762	3593,83
669,949	3491,63
670,136	3613,9
670,323	3516
670,511	3563,93
670,698	3511,29
670,885	3526,45
671,072	3492,04
671,259	3503,51
671,446	3536,69
671,633	3500,23
671,82	3481,6
672,007	3480,16
672,194	3486,31
672,381	3472,38
672,568	3499,42
672,755	3518,26
672,942	3477,3
673,129	3460,71
673,316	3487,95
673,503	3445,55
673,69	3492,25
673,877	3505,15
674,064	3483,85
674,251	3443,71
674,437	3419,95
674,624	3399,68
674,811	3448,83
674,998	3415,04
675,185	3438,8
675,372	3412,38
675,558	3397,02
675,745	3415,65
675,932	3425,07
676,119	3428,76
676,305	3374,08
676,492	3452,11
676,679	3444,94
676,865	3449,85
677,052	3383,3
677,239	3499,21
677,425	3377,97
677,612	3464,8
677,798	3450,47
677,985	3433,27
678,172	3434,9
678,358	3468,29
678,545	3399,06
678,731	3419,14
678,918	3428,76
679,104	3370,19
679,291	3396,2
679,477	3361,38
679,664	3414,42
679,85	3404,39
680,036	3358,72
680,223	3354,62
680,409	3403,98
680,596	3359,33
680,782	3333,94
680,968	3305,06
681,155	3353,8
681,341	3337,22
681,527	3347,87
681,714	3418,73
681,9	3408,49
682,086	3324,31
682,272	3357,9
682,459	3372,65
682,645	3356,88
682,831	3317,97
683,017	3373,47
683,204	3371,42
683,39	3320,22
683,576	3316,33
683,762	3318,78
683,948	3310,18
684,134	3322,88
684,32	3256,73
684,506	3337,63
684,693	3304,24
684,879	3285,4
685,065	3334,76
685,251	3269,02
685,437	3305,27
685,623	3283,56
685,809	3281,51
685,995	3205,33
686,181	3321,86
686,366	3289,7
686,552	3254,48
686,738	3278,44
686,924	3228,88
687,11	3195,29
687,296	3290,32
687,482	3199,8
687,668	3176,25
687,853	3226,22
688,039	3189,76
688,225	3141,02
688,411	3184,03
688,597	3148,19
688,782	3173,79
688,968	3222,94
689,154	3166,01
689,34	3184,85
689,525	3212,9
689,711	3267,59
689,897	3192,22
690,082	3224,58
690,268	3211,88
690,454	3167,03
690,639	3177,27
690,825	3156,38
691,01	3171,33
691,196	3120,54
691,381	3155,36
691,567	3081,02
691,753	3118,08
691,938	3123,82
692,124	3144,5
692,309	3100,88
692,494	3103,13
692,68	3130,99
692,865	3094,53
693,051	3051,12
693,236	3103,54
693,422	3094,94
693,607	3071,8
693,792	3075,49
693,978	3056,23
694,163	3048,86
694,348	2995,41
694,534	3038,42
694,719	3025,11
694,904	3017,12
695,089	2977,8
695,275	3017,94
695,46	2967,97
695,645	3012,82
695,83	3004,63
696,016	2970,22
696,201	2967,15
696,386	3007,9
696,571	3010,16
696,756	2968,38
696,941	3031,25
697,126	2920,86
697,311	2945,64
697,497	2919,84
697,682	2921,48
697,867	2946,05
698,052	2952,4
698,237	2912,67
698,422	2931,51
698,607	2930,49
698,792	2911,65
698,977	2880,72
699,162	2897,31
699,347	2897,31
699,531	2891,58
699,716	2890,96
699,901	2883,8
700,086	2895,47
700,271	2925,78
700,456	2868,85
700,641	2932,54
700,825	2910,42
701,01	2843,66
701,195	2834,44
701,38	2872,12
701,565	2803,11
701,749	2859,02
701,934	2841,4
702,119	2813,14
702,303	2788,77
702,488	2752,52
702,673	2753,95
702,857	2777,3
703,042	2777,51
703,227	2809,66
703,411	2783,86
703,596	2833,42
703,78	2747,81
703,965	2737,78
704,15	2737,78
704,334	2740,64
704,519	2707,26
704,703	2696,41
704,888	2769,31
705,072	2746,38
705,257	2702,55
705,441	2692,31
705,625	2661,59
705,81	2685,96
705,994	2676,54
706,179	2651,76
706,363	2687,19
706,547	2702,35
706,732	2651,15
706,916	2686,37
707,1	2632,1
707,285	2695,79
707,469	2646,85
707,653	2614,49
707,837	2620,22
708,022	2669,37
708,206	2637,43
708,39	2661,18
708,574	2644,39
708,759	2607,53
708,943	2609,37
709,127	2597,29
709,311	2604,66
709,495	2575,37
709,679	2566,16
709,863	2566,98
710,047	2570,25
710,231	2582,95
710,415	2541,58
710,6	2532,77
710,784	2544,45
710,968	2553,87
711,152	2596,47
711,336	2592,57
711,519	2541,99
711,703	2563,9
711,887	2522,53
712,071	2522,74
712,255	2499,8
712,439	2502,26
712,623	2500,62
712,807	2505,13
712,991	2480,35
713,174	2528,06
713,358	2507,99
713,542	2528,47
713,726	2524,38
713,91	2547,52
714,093	2516,39
714,277	2446,76
714,461	2450,04
714,645	2485,88
714,828	2388,6
715,012	2429,15
715,196	2443,69
715,379	2430,99
715,563	2419,11
715,747	2410,31
715,93	2453,31
716,114	2421,57
716,297	2408,26
716,481	2406
716,664	2362,79
716,848	2432,01
717,031	2364,43
717,215	2393,51
717,398	2416,24
717,582	2349,28
717,765	2343,75
717,949	2355,22
718,132	2306,68
718,316	2322,86
718,499	2339,04
718,682	2334,12
718,866	2293,98
719,049	2302,79
719,233	2292,55
719,416	2264,49
719,599	2338,83
719,782	2304,22
719,966	2310,98
720,149	2306,06
720,332	2304,63
720,515	2324,09
720,699	2301,56
720,882	2266,74
721,065	2309,55
721,248	2241,35
721,431	2265,51
721,615	2236,23
721,798	2211,45
721,981	2257,12
722,164	2196,91
722,347	2239,3
722,53	2217,59
722,713	2235,41
722,896	2232,95
723,079	2230,29
723,262	2225,17
723,445	2244,42
723,628	2193,43
723,811	2205,3
723,994	2223,33
724,177	2196,09
724,36	2196,29
724,543	2229,67
724,726	2179,91
724,909	2165,98
725,091	2184,21
725,274	2222,1
725,457	2181,75
725,64	2143,46
725,823	2110,07
726,006	2220,05
726,188	2135,06
726,371	2148,58
726,554	2121,75
726,737	2111,71
726,919	2124,82
727,102	2128,1
727,285	2105,98
727,467	2127,07
727,65	2091,64
727,833	2124,82
728,015	2148,98
728,198	2086,73
728,38	2094,1
728,563	2103,32
728,746	2081,4
728,928	2085,5
729,111	2068,09
729,293	2105,16
729,476	2109,25
729,658	2087,14
729,841	2098,2
730,023	2082,84
730,205	2021,4
730,388	2046,18
730,57	2087,75
730,753	2030,61
730,935	2083,86
731,117	2055,6
731,3	2039,62
731,482	2053,14
731,664	2059,08
731,847	2025,29
732,029	2017,71
732,211	2060,92
732,394	2024,06
732,576	2015,46
732,758	2029,79
732,94	1998,46
733,122	1963,85
733,305	1966,92
733,487	1964,46
733,669	2009,72
733,851	1973,68
734,033	1984,74
734,215	1964,05
734,397	2022,42
734,58	1952,79
734,762	1957,91
734,944	1962,62
735,126	1963,23
735,308	1930,26
735,49	2010,54
735,672	1952,58
735,854	1932,72
736,036	1924,53
736,218	1965,28
736,399	1943,98
736,581	1895,04
736,763	1936,41
736,945	1919
737,127	1899,34
737,309	1958,52
737,491	1950,54
737,672	1986,17
737,854	1914,29
738,036	1907,32
738,218	1869,23
738,4	1901,39
738,581	1914,49
738,763	1893,6
738,945	1853,46
739,127	1879,68
739,308	1852,64
739,49	1861,25
739,672	1850,6
739,853	1901,79
740,035	1845,68
740,216	1803,9
740,398	1859,61
740,58	1840,56
740,761	1837,69
740,943	1805,54
741,124	1784,24
741,306	1848,75
741,487	1831,55
741,669	1830,53
741,85	1804,52
742,032	1801,44
742,213	1760,49
742,394	1814,76
742,576	1776,87
742,757	1808,2
742,939	1829,3
743,12	1789,36
743,301	1745,13
743,483	1750,25
743,664	1758,44
743,845	1770,93
744,027	1781,37
744,208	1752,5
744,389	1719,94
744,57	1738,16
744,752	1761,1
744,933	1734,48
745,114	1705,6
745,295	1747,58
745,476	1743,28
745,657	1713,59
745,839	1748,61
746,02	1703,14
746,201	1775,44
746,382	1726,08
746,563	1723,62
746,744	1791,41
746,925	1749,84
747,106	1724,44
747,287	1723,62
747,468	1738,57
747,649	1740,01
747,83	1750,45
748,011	1768,47
748,192	1776,05
748,373	1757,21
748,554	1735,3
748,735	1753,93
748,915	1754,75
749,096	1738,98
749,277	1739,39
749,458	1751,27
749,639	1768,06
749,82	1759,46
750	1727,51
750,181	1723,01
750,362	1770,11
750,543	1761,92
750,723	1791
750,904	1743,08
751,085	1771,54
751,265	1747,79
751,446	1810,05
751,627	1790,18
751,807	1777,48
751,988	1763,15
752,169	1799,4
752,349	1847,11
752,53	1853,26
752,71	1816,6
752,891	1788,54
753,071	1827,04
753,252	1792,43
753,432	1832,37
753,613	1785,68
753,793	1868
753,974	1854,08
754,154	1843,22
754,334	1860,02
754,515	1863,09
754,695	1852,44
754,876	1835,44
755,056	1855,51
755,236	1848,55
755,417	1879,88
755,597	1825,61
755,777	1856,74
755,957	1831,75
756,138	1847,93
756,318	1838,1
756,498	1841,18
756,678	1856,13
756,859	1838,72
757,039	1861,04
757,219	1880,5
757,399	1884,18
757,579	1877,01
757,759	1856,74
757,939	1877,42
758,119	1864,32
758,3	1892,78
758,48	1885,62
758,66	1901,59
758,84	1884,39
759,02	1914,08
759,2	1946,65
759,38	1843,43
759,56	1880,5
759,74	1847,73
759,919	1848,96
760,099	1839,54
760,279	1820,29
760,459	1853,05
760,639	1851,01
760,819	1846,3
760,999	1771,95
761,178	1821,11
761,358	1844,04
761,538	1813,53
761,718	1820,08
761,898	1799,19
762,077	1802,26
762,257	1787,11
762,437	1801,24
762,616	1789,57
762,796	1755,57
762,976	1792,23
763,155	1794,48
763,335	1745,33
763,515	1783,83
763,694	1727,31
763,874	1754,34
764,053	1711,95
764,233	1723,21
764,413	1695,77
764,592	1720,55
764,772	1710,72
764,951	1672,01
765,131	1664,03
765,31	1711,13
765,489	1721,78
765,669	1713,79
765,848	1658,09
766,028	1659,52
766,207	1643,14
766,386	1662,59
766,566	1663,62
766,745	1621,84
766,924	1654,4
767,104	1625,32
767,283	1609,75
767,462	1598,49
767,642	1592,14
767,821	1572,48
768	1571,25
768,179	1567,57
768,358	1525,17
768,538	1516,16
768,717	1544,83
768,896	1547,29
769,075	1564,08
769,254	1459,02
769,433	1467,22
769,612	1509,81
769,791	1467,01
769,97	1476,64
770,149	1503,26
770,328	1468,65
770,507	1443,05
770,686	1448,99
770,865	1465,58
771,044	1432,2
771,223	1415,61
771,402	1410,28
771,581	1413,56
771,76	1457,59
771,939	1410,9
772,118	1424,21
772,297	1448,58
772,475	1356,63
772,654	1382,02
772,833	1410,08
773,012	1391,24
773,191	1374,44
773,369	1371,17
773,548	1374,65
773,727	1361,75
773,906	1364,61
774,084	1351,1
774,263	1377,11
774,442	1323,04
774,62	1318,94
774,799	1312,59
774,977	1302,15
775,156	1277,57
775,335	1285,77
775,513	1300,31
775,692	1319,56
775,87	1281,26
776,049	1254,02
776,227	1262,83
776,406	1241,73
776,584	1253
776,763	1225,15
776,941	1249,11
777,119	1237,23
777,298	1239,69
777,476	1207,33
777,655	1221,25
777,833	1226,58
778,011	1247,06
778,19	1188,49
778,368	1243,37
778,546	1232,31
778,725	1222,89
778,903	1220,03
779,081	1181,11
779,259	1213,06
779,437	1207,74
779,616	1191,56
779,794	1191,15
779,972	1183,37
780,15	1133,81
780,328	1171,08
780,506	1163,3
780,685	1193,4
780,863	1183,37
781,041	1155,11
781,219	1149,78
781,397	1133,19
781,575	1112,71
781,753	1119,47
781,931	1136,88
782,109	1140,77
782,287	1099,81
782,465	1125,61
782,643	1125,41
782,82	1083,02
782,998	1108,21
783,176	1118,65
783,354	1080,15
783,532	1114,15
783,71	1070,73
783,888	1080,56
784,065	1080,97
784,243	1075,85
784,421	1093,26
784,599	1075,23
784,776	1064,79
784,954	1037,14
785,132	1065,81
785,31	1021,99
785,487	1060,49
785,665	1026,08
785,842	1052,91
786,02	1030,79
786,198	1014,82
786,375	1021,58
786,553	1010,31
786,73	1017,07
786,908	1007,45
787,085	1011,75
787,263	1019,12
787,44	990,86
787,618	1025,88
787,795	1012,16
787,973	952,97
788,15	925,12
788,328	982,05
788,505	952,56
788,682	960,55
788,86	983,9
789,037	1010,52
789,215	1010,11
789,392	967,1
789,569	1006,22
789,746	966,9
789,924	990,04
790,101	960,75
790,278	962,39
790,455	975,29
790,633	936,59
790,81	928,19
790,987	925,12
791,164	948,88
791,341	956,45
791,518	934,13
791,695	897,68
791,873	936,79
792,05	938,23
792,227	904,43
792,404	933,72
792,581	946,01
792,758	951,13
792,935	924,3
793,112	921,84
793,289	945,19
793,466	920,82
793,643	943,76
793,82	912,22
793,996	881,09
794,173	904,84
794,35	895,22
794,527	895,22
794,704	892,15
794,881	885,8
795,057	916,52
795,234	871,26
795,411	885,18
795,588	879,65
795,765	884,77
795,941	878,02
796,118	821,9
796,295	834,39
796,471	860,2
796,648	861,43
796,825	849,96
797,001	825,38
797,178	846,07
797,354	842,79
797,531	842,79
797,708	844,02
797,884	833,98
798,061	814,32
798,237	832,35
798,414	829,07
798,59	817,81
798,767	843
798,943	829,68
799,119	800,6
799,296	820,06
799,472	794,05
799,649	834,6
799,825	812,28
800,001	788,11
800,178	810,23
800,354	777,26
800,53	794,66
800,707	814,32
800,883	789,95
801,059	783,81
801,235	781,15
801,411	826,82
801,588	766,81
801,764	809,41
801,94	779,3
802,116	790,36
802,292	793,84
802,468	765,17
802,645	772,14
802,821	776,03
802,997	762,1
803,173	786,27
803,349	734,66
803,525	736,5
803,701	769,88
803,877	732
804,053	739,78
804,229	763,33
804,405	743,46
804,581	810,64
804,756	703,32
804,932	728,92
805,108	758,62
805,284	722,16
805,46	740,39
805,636	733,02
805,812	772,95
805,987	733,43
806,163	734,04
806,339	754,93
806,515	739,98
806,69	709,67
806,866	738,34
807,042	733,02
807,217	703,94
807,393	714,79
807,569	709,26
807,744	698
807,92	743,26
808,096	687,14
808,271	727,08
808,447	678,54
808,622	681
808,798	706,6
808,973	668,51
809,149	698
809,324	691,45
809,5	699,43
809,675	717,45
809,851	691,04
810,026	726,88
810,201	691,86
810,377	683,05
810,552	684,28
810,728	661,14
810,903	695,54
811,078	694,72
811,253	699,23
811,429	670,76
811,604	677,11
811,779	701,07
811,955	700,66
812,13	677,52
812,305	650,69
812,48	706,4
812,655	626,52
812,83	687,96
813,006	676,7
813,181	637,99
813,356	669,53
813,531	678,34
813,706	654,99
813,881	623,04
814,056	627,75
814,231	655,61
814,406	572,25
814,581	621,81
814,756	638,2
814,931	625,3
815,106	606,25
815,281	608,91
815,456	617,92
815,631	618,13
815,805	674,24
815,98	618,95
816,155	624,89
816,33	654,99
816,505	620,18
816,68	623,04
816,854	661,34
817,029	603,79
817,204	641,68
817,379	618,95
817,553	617,92
817,728	632,46
817,903	622,84
818,077	590,89
818,252	609,12
818,427	620,79
818,601	605,43
818,776	603,38
818,95	596,21
819,125	622,22
819,299	616,08
819,474	578,4
819,648	604,61
819,823	594,37
819,997	601,54
820,172	593,96
820,346	628,57
820,521	588,84
820,695	580,86
820,87	594,99
821,044	573,07
821,218	625,71
821,393	606,05
821,567	609,73
821,741	593,76
821,916	525,97
822,09	560,38
822,264	576,35
822,438	588,84
822,613	550,95
822,787	564,27
822,961	587,2
823,135	556,69
823,309	586,38
823,483	609,12
823,658	571,84
823,832	557,51
824,006	546,86
824,18	526,99
824,354	539,9
824,528	556,89
824,702	559,15
824,876	588,64
825,05	546,24
825,224	541,12
825,398	551,57
825,572	516,34
825,746	517,57
825,92	559,56
826,093	551,98
826,267	553,21
826,441	538,67
826,615	545,43
826,789	565,29
826,963	535,39
827,136	524,13
827,31	526,79
827,484	540,51
827,658	516,34
827,831	528,22
828,005	526,79
828,179	523,1
828,353	514,09
828,526	539,49
828,7	516,96
828,873	544,4
829,047	547,47
829,221	519,42
829,394	488,7
829,568	507,54
829,741	503,65
829,915	492,38
830,088	524,54
830,262	518,8
830,435	478,25
830,609	545,63
830,782	520,24
830,956	525,97
831,129	514,5
831,302	509,59
831,476	494,02
831,649	522,08
831,822	470,26
831,996	500,57
832,169	473,13
832,342	487,26
832,516	495,25
832,689	462,48
832,862	491,77
833,035	490,74
833,209	461,46
833,382	466,17
833,555	498,32
833,728	508,36
833,901	495,05
834,074	498,53
834,247	471,08
834,42	498,12
834,594	494,23
834,767	490,13
834,94	492,79
835,113	473,13
835,286	492,79
835,459	485,83
835,632	442,41
835,805	478,66
835,977	460,02
836,15	449,38
836,323	499,76
836,496	452,45
836,669	491,15
836,842	462,89
837,015	470,06
837,188	470,47
837,36	452,04
837,533	425,41
837,706	456,13
837,879	450,6
838,051	449,79
838,224	482,35
838,397	473,95
838,569	474,57
838,742	448,15
838,915	460,84
839,087	462,69
839,26	436,47
839,433	484,6
839,605	444,05
839,778	436,68
839,95	438,52
840,123	439,55
840,295	439,34
840,468	449,79
840,64	437,5
840,813	417,02
840,985	445,69
841,158	436,88
841,33	425,82
841,502	474,57
841,675	455,72
841,847	423,98
842,019	423,78
842,192	408,42
842,364	421,11
842,536	395,72
842,709	386,91
842,881	416,81
843,053	438,11
843,225	415,79
843,398	429,72
843,57	448,56
843,742	404,32
843,914	396,33
844,086	416,61
844,258	449,38
844,43	428,28
844,602	395,51
844,775	422,55
844,947	420,09
845,119	423,37
845,291	393,47
845,463	411,28
845,635	406,78
845,807	428,9
845,979	426,44
846,15	415,99
846,322	380,77
846,494	381,59
846,666	405,55
846,838	372,37
847,01	392,65
847,182	364,79
847,354	396,33
847,525	396,74
847,697	383,02
847,869	381,59
848,041	405,14
848,212	390,39
848,384	371,35
848,556	380,15
848,727	366,23
848,899	371,14
849,071	365,82
849,242	387,73
849,414	388,35
849,585	398,59
849,757	399,41
849,929	376,26
850,1	364,38
850,272	360,49
850,443	339,4
850,615	380,77
850,786	364,38
850,958	368,89
851,129	365,61
851,3	363,77
851,472	374,62
851,643	346,16
851,815	349,03
851,986	353,74
852,157	365,41
852,329	359,26
852,5	334,28
852,671	369,91
852,842	333,67
853,014	347,39
853,185	339,19
853,356	338,79
853,527	374,83
853,698	366,64
853,87	340,01
854,041	338,58
854,212	352,71
854,383	347,8
854,554	333,46
854,725	369,91
854,896	326,09
855,067	319,33
855,238	321,58
855,409	334,89
855,58	329,98
855,751	308,27
855,922	329,16
856,093	353,53
856,264	318,1
856,435	328,55
856,606	315,64
856,777	336,12
856,948	296,8
857,118	324,04
857,289	332,44
857,46	337,76
857,631	293,12
857,802	309,29
857,972	320,15
858,143	312,78
858,314	331,41
858,484	300,69
858,655	316,26
858,826	320,76
858,996	291,68
859,167	311,75
859,338	278,17
859,508	317,69
859,679	305,61
859,849	302,74
860,02	297,01
860,19	290,04
860,361	281,24
860,531	314,41
860,702	308,27
860,872	291,89
861,043	278,57
861,213	262,6
861,384	292,91
861,554	325,47
861,724	294,55
861,895	273,86
862,065	291,48
862,235	325,06
862,406	320,97
862,576	281,44
862,746	304,58
862,916	273,05
863,087	265,47
863,257	312,57
863,427	292,3
863,597	271,2
863,767	261,58
863,937	250,52
864,108	262,19
864,278	274,48
864,448	249,29
864,618	258,3
864,788	263,42
864,958	272,43
865,128	239,66
865,298	252,98
865,468	270,79
865,638	275,5
865,808	305,4
865,978	252,57
866,148	272,02
866,318	245,6
866,487	278,98
866,657	271,82
866,827	264,85
866,997	236,59
867,167	241,92
867,337	256,66
867,506	245,81
867,676	253,79
867,846	268,13
868,016	259,73
868,185	257,07
868,355	272,02
868,525	241,51
868,694	243,96
868,864	221,03
869,034	255,64
869,203	226,15
869,373	269,77
869,542	244,37
869,712	231,06
869,881	233,11
870,051	246,22
870,22	210,58
870,39	221,64
870,559	231,47
870,729	238,23
870,898	206,9
871,068	250,11
871,237	229,22
871,406	238,43
871,576	226,76
871,745	241,92
871,914	220
872,084	203,41
872,253	218,77
872,422	218,57
872,591	201,57
872,761	213,04
872,93	215,29
873,099	216,52
873,268	226,76
873,437	234,54
873,607	238,64
873,776	189,69
873,945	196,86
874,114	189,28
874,283	191,54
874,452	202,19
874,621	184,78
874,79	183,34
874,959	192,97
875,128	195,63
875,297	190,92
875,466	197,88
875,635	193,17
875,804	201,16
875,973	187,65
876,142	224,3
876,31	177
876,479	179,04
876,648	181,3
876,817	200,55
876,986	197,88
877,155	189,08
877,323	201,37
877,492	209,15
877,661	248,27
877,829	162,05
877,998	179,45
878,167	170,24
878,335	188,46
878,504	198,5
878,673	194,2
878,841	214,27
879,01	187,85
879,178	186,21
879,347	177,81
879,515	185,8
879,684	186,21
879,852	193,99
880,021	199,11
880,189	193,79
880,358	160,41
880,526	191,74
880,695	180,68
880,863	161,84
881,031	179,45
881,2	189,08
881,368	156,93
881,536	188,67
881,705	165,53
881,873	179,25
882,041	160,2
882,21	179,04
882,378	153,85
882,546	165,53
882,714	149,96
882,882	170,24
883,05	156,11
883,219	129,48
883,387	200,34
883,555	153,03
883,723	149,35
883,891	142,79
884,059	163,48
884,227	197,68
884,395	152,42
884,563	181,91
884,731	149,55
884,899	151,4
885,067	174,95
885,235	169,62
885,403	120,47
885,571	128,87
885,739	167,17
