Data from USB4F035431__1__09-42-40-768.txt Node

Date: Mon Feb 19 09:42:40 CET 2024
User: Versuch 234
Spectrometer: USB4F03543
Trigger mode: 4
Integration Time (sec): 1,000000E-1
Scans to average: 10
Electric dark correction enabled: true
Nonlinearity correction enabled: false
Boxcar width: 0
XAxis mode: Wavelengths
Number of Pixels in Spectrum: 3648
>>>>>Begin Spectral Data<<<<<
179,969	-105,37
180,181	-105,37
180,394	-105,37
180,606	-105,98
180,819	-100,45
181,031	17,31
181,243	36,76
181,456	-34,71
181,668	29,18
181,88	18,94
182,093	-4,2
182,305	-50,48
182,518	-20,17
182,73	36,56
182,942	10,14
183,155	-32,87
183,367	-6,45
183,579	22,02
183,791	20,99
184,004	-10,55
184,216	13,82
184,428	3,58
184,641	1,95
184,853	-9,93
185,065	-0,92
185,277	42,29
185,49	29,8
185,702	-26,52
185,914	-14,23
186,126	10,55
186,338	9,11
186,551	19,56
186,763	6,86
186,975	-6,66
187,187	18,74
187,399	-6,86
187,612	3,38
187,824	1,74
188,036	3,58
188,248	34,71
188,46	24,47
188,672	30,62
188,885	9,73
189,097	25,91
189,309	-7,48
189,521	23,65
189,733	26,11
189,945	24,68
190,157	12,19
190,369	11,98
190,581	14,03
190,794	42,9
191,006	-4,81
191,218	-3,99
191,43	22,63
191,642	-2,56
191,854	3,17
192,066	16,08
192,278	37,38
192,49	-21,4
192,702	18,53
192,914	26,32
193,126	22,63
193,338	37,38
193,55	17,51
193,762	32,05
193,974	-17,92
194,186	-17,51
194,398	6,04
194,61	14,23
194,822	29,18
195,034	39,42
195,246	33,69
195,457	2,36
195,669	51,1
195,881	22,02
196,093	8,09
196,305	20,99
196,517	-19,56
196,729	35,94
196,941	-13,82
197,153	46,8
197,365	68,5
197,576	16,08
197,788	5,84
198	26,93
198,212	44,75
198,424	47,62
198,636	4,2
198,847	-11,37
199,059	15,67
199,271	0,31
199,483	13,41
199,695	13,62
199,906	28,57
200,118	11,37
200,33	49,46
200,542	189,54
200,753	10,96
200,965	-9,52
201,177	45,57
201,389	-5,43
201,6	-4,81
201,812	5,02
202,024	4,81
202,235	-2,56
202,447	49,46
202,659	10,34
202,871	29,39
203,082	20,17
203,294	-8,91
203,506	0,1
203,717	23,86
203,929	5,84
204,141	3,58
204,352	58,26
204,564	8,09
204,775	25,91
204,987	48,02
205,199	22,22
205,41	19,56
205,622	50,07
205,833	9,32
206,045	48,23
206,257	17,92
206,468	-19,76
206,68	-0,51
206,891	21,2
207,103	-6,86
207,314	-17,92
207,526	46,39
207,737	14,03
207,949	8,5
208,16	19,76
208,372	21,2
208,583	22,22
208,795	15,67
209,006	10,34
209,218	15,87
209,429	4,81
209,641	13,41
209,852	1,13
210,064	39,83
210,275	-13,82
210,487	28,98
210,698	46,59
210,909	22,22
211,121	37,17
211,332	22,63
211,544	21,61
211,755	50,89
211,966	59,29
212,178	2,36
212,389	75,88
212,6	17,71
212,812	42,29
213,023	19,56
213,234	27,55
213,446	36,56
213,657	-1,95
213,868	38,4
214,08	90,83
214,291	1,33
214,502	32,26
214,714	-2,36
214,925	4,4
215,136	-0,1
215,347	3,79
215,559	-9,52
215,77	-5,22
215,981	29,39
216,192	-13,82
216,404	20,79
216,615	19,15
216,826	34,71
217,037	2,76
217,249	26,73
217,46	53,14
217,671	13,82
217,882	21,2
218,093	5,02
218,304	2,97
218,516	31,64
218,727	-5,63
218,938	-2,36
219,149	71,58
219,36	26,73
219,571	43,11
219,782	20,79
219,993	35,74
220,205	-17,71
220,416	65,23
220,627	18,33
220,838	37,58
221,049	102,5
221,26	51,92
221,471	16,49
221,682	2,76
221,893	43,31
222,104	-15,26
222,315	-30,41
222,526	-11,78
222,737	25,5
222,948	7,27
223,159	41,47
223,37	19,15
223,581	14,03
223,792	8,7
224,003	39,63
224,214	-7,27
224,425	30
224,636	-26,93
224,847	49,66
225,058	2,56
225,269	14,44
225,48	6,45
225,691	-11,16
225,902	37,79
226,112	11,37
226,323	-0,1
226,534	20,99
226,745	16,49
226,956	8,91
227,167	-19,35
227,378	7,68
227,589	-13,82
227,799	62,16
228,01	18,74
228,221	-9,52
228,432	-4,61
228,643	-16,49
228,853	13,82
229,064	-16,9
229,275	17,1
229,486	-10,14
229,697	3,58
229,907	13
230,118	9,32
230,329	7,07
230,54	10,55
230,75	40,04
230,961	48,43
231,172	-0,92
231,383	1,54
231,593	5,43
231,804	-2,97
232,015	11,78
232,225	45,36
232,436	-3,58
232,647	17,51
232,857	24,27
233,068	38,6
233,279	37,17
233,489	27,34
233,7	20,17
233,91	14,44
234,121	-2,56
234,332	-2,97
234,542	36,35
234,753	-1,33
234,964	24,27
235,174	-9,73
235,385	46,18
235,595	28,77
235,806	47,41
236,016	10,55
236,227	13,62
236,437	-3,99
236,648	12,39
236,858	2,97
237,069	-3,38
237,279	3,79
237,49	18,53
237,7	9,11
237,911	21,61
238,121	1,54
238,332	2,36
238,542	36,76
238,753	14,64
238,963	-7,07
239,174	9,52
239,384	-5,43
239,595	10,75
239,805	6,25
240,015	-4,2
240,226	-12,39
240,436	25,09
240,647	30,21
240,857	21,4
241,067	8,91
241,278	86,53
241,488	-2,97
241,698	23,65
241,909	-1,13
242,119	13,82
242,329	39,63
242,54	37,58
242,75	4,4
242,96	-0,51
243,171	14,64
243,381	26,11
243,591	1,74
243,801	63,38
244,012	65,64
244,222	16,08
244,432	-33,28
244,642	14,64
244,853	-9,93
245,063	15,46
245,273	39,42
245,483	14,85
245,694	-2,97
245,904	10,96
246,114	61,13
246,324	-22,63
246,534	22,22
246,744	-10,75
246,955	-20,17
247,165	60,93
247,375	66,87
247,585	16,49
247,795	20,17
248,005	6,86
248,215	42,7
248,425	42,7
248,636	82,64
248,846	22,43
249,056	44,95
249,266	-1,74
249,476	29,18
249,686	15,67
249,896	9,32
250,106	-1,74
250,316	3,99
250,526	75,26
250,736	-1,54
250,946	79,36
251,156	49,66
251,366	30,41
251,576	22,63
251,786	64
251,996	-2,56
252,206	23,45
252,416	29,39
252,626	-1,74
252,836	-7,07
253,046	39,42
253,256	46,18
253,466	11,57
253,676	9,32
253,885	43,31
254,095	15,46
254,305	28,98
254,515	37,38
254,725	38,81
254,935	4,81
255,145	28,36
255,355	24,47
255,564	11,37
255,774	12,39
255,984	84,68
256,194	30,62
256,404	5,22
256,614	36,15
256,823	45,57
257,033	18,74
257,243	24,47
257,453	7,07
257,662	-4,81
257,872	48,84
258,082	30,62
258,292	-2,56
258,501	71,37
258,711	99,22
258,921	57,24
259,131	-12,8
259,34	-8,91
259,55	47,82
259,76	21,61
259,969	14,23
260,179	-8,5
260,389	35,12
260,598	71,99
260,808	36,97
261,018	25,5
261,227	52,94
261,437	-1,54
261,647	58,67
261,856	-5,22
262,066	35,33
262,275	40,04
262,485	29,8
262,694	52,74
262,904	25,91
263,114	43,11
263,323	18,33
263,533	11,37
263,742	8,91
263,952	25,5
264,161	24,06
264,371	8,5
264,58	17,1
264,79	6,04
264,999	22,43
265,209	57,45
265,418	33,48
265,628	38,4
265,837	5,22
266,047	36,97
266,256	47,41
266,466	33,89
266,675	19,97
266,884	36,15
267,094	52,94
267,303	58,88
267,513	22,63
267,722	53,35
267,931	35,94
268,141	11,98
268,35	30
268,559	41,68
268,769	12,19
268,978	-10,96
269,187	24,06
269,397	10,34
269,606	1,33
269,815	0,1
270,025	37,79
270,234	52,94
270,443	-8,91
270,653	-8,5
270,862	35,74
271,071	44,54
271,28	5,02
271,49	30,41
271,699	12,39
271,908	41,47
272,117	22,22
272,327	18,12
272,536	19,15
272,745	15,05
272,954	-2,76
273,163	35,33
273,372	54,37
273,582	7,48
273,791	21,2
274	-5,84
274,209	19,76
274,418	59,08
274,627	63,18
274,836	7,48
275,046	53,14
275,255	23,45
275,464	14,23
275,673	23,65
275,882	29,59
276,091	14,64
276,3	36,35
276,509	19,97
276,718	37,99
276,927	18,74
277,136	42,29
277,345	32,87
277,554	14,44
277,763	43,11
277,972	11,57
278,181	48,64
278,39	6,25
278,599	19,97
278,808	-8,09
279,017	35,53
279,226	15,05
279,435	21,81
279,644	32,26
279,853	54,99
280,062	81,61
280,271	15,87
280,48	17,92
280,688	9,32
280,897	48,02
281,106	-8,7
281,315	-1,95
281,524	29,18
281,733	6,04
281,942	15,05
282,151	45,77
282,359	36,76
282,568	8,29
282,777	45,57
282,986	25,5
283,195	37,99
283,403	46,18
283,612	15,26
283,821	-0,51
284,03	3,79
284,238	36,76
284,447	20,58
284,656	6,04
284,865	58,06
285,073	37,79
285,282	16,69
285,491	33,07
285,699	-18,53
285,908	27,34
286,117	28,98
286,325	20,58
286,534	58,26
286,743	11,78
286,951	27,75
287,16	43,52
287,369	9,32
287,577	12,39
287,786	28,77
287,995	21,4
288,203	5,84
288,412	13
288,62	23,24
288,829	2,56
289,037	16,69
289,246	39,22
289,455	-0,92
289,663	40,86
289,872	43,52
290,08	24,88
290,289	50,07
290,497	-4,4
290,706	33,07
290,914	-0,72
291,123	1,54
291,331	30,21
291,54	54,17
291,748	78,54
291,957	32,26
292,165	37,38
292,373	-22,02
292,582	17,31
292,79	18,94
292,999	56,01
293,207	39,42
293,415	20,99
293,624	3,99
293,832	3,99
294,041	30,21
294,249	1,95
294,457	-3,79
294,666	18,12
294,874	1,13
295,082	41,06
295,291	53,55
295,499	14,44
295,707	58,47
295,915	20,17
296,124	55,19
296,332	38,4
296,54	30,21
296,749	38,81
296,957	54,99
297,165	32,26
297,373	25,09
297,581	35,74
297,79	18,74
297,998	-7,27
298,206	10,75
298,414	14,23
298,622	49,66
298,831	61,75
299,039	15,87
299,247	50,48
299,455	55,4
299,663	34,51
299,871	25,7
300,08	11,16
300,288	27,95
300,496	24,47
300,704	19,35
300,912	44,95
301,12	28,36
301,328	45,36
301,536	14,44
301,744	-18,53
301,952	54,58
302,16	6,04
302,368	6,04
302,576	25,5
302,784	59,29
302,992	-2,15
303,2	34,71
303,408	23,04
303,616	13,82
303,824	61,34
304,032	65,23
304,24	61,34
304,448	47
304,656	33,28
304,864	72,6
305,072	32,67
305,28	22,83
305,488	36,56
305,696	38,81
305,904	23,65
306,111	3,79
306,319	14,03
306,527	44,95
306,735	38,4
306,943	49,66
307,151	28,57
307,359	13,21
307,566	60,11
307,774	62,36
307,982	50,07
308,19	13,62
308,398	12,39
308,605	15,46
308,813	2,76
309,021	28,98
309,229	40,65
309,436	19,15
309,644	29,39
309,852	46,18
310,06	93,49
310,267	19,76
310,475	19,76
310,683	53,96
310,89	20,58
311,098	68,91
311,306	27,14
311,513	40,24
311,721	2,56
311,929	29,39
312,136	12,6
312,344	29,59
312,552	52,74
312,759	5,84
312,967	49,87
313,174	41,68
313,382	22,22
313,589	64
313,797	58,47
314,005	45,98
314,212	42,29
314,42	11,57
314,627	40,24
314,835	14,03
315,042	24,06
315,25	8,5
315,457	-6,86
315,665	-24,88
315,872	45,98
316,08	67,07
316,287	22,43
316,495	205,31
316,702	20,99
316,909	0,31
317,117	35,74
317,324	31,23
317,532	60,93
317,739	14,23
317,946	31,64
318,154	6,04
318,361	25,7
318,569	52,53
318,776	11,57
318,983	4,61
319,191	27,34
319,398	28,36
319,605	22,83
319,813	44,34
320,02	-4,61
320,227	79,77
320,434	57,65
320,642	28,36
320,849	51,51
321,056	53,76
321,264	36,97
321,471	42,7
321,678	64,61
321,885	22,43
322,092	61,95
322,3	45,36
322,507	5,22
322,714	64,82
322,921	28,77
323,128	20,58
323,336	29,8
323,543	67,48
323,75	84,48
323,957	51,51
324,164	71,37
324,371	85,71
324,578	19,35
324,786	75,47
324,993	52,33
325,2	67,07
325,407	19,15
325,614	69,32
325,821	135,88
326,028	163,94
326,235	91,44
326,442	90,83
326,649	81,2
326,856	102,71
327,063	77,72
327,27	108,03
327,477	104,14
327,684	63,38
327,891	71,37
328,098	139,77
328,305	136,7
328,512	81,82
328,719	126,87
328,926	169,47
329,133	131,17
329,34	232,75
329,546	174,38
329,753	169,06
329,96	138,14
330,167	190,56
330,374	173,16
330,581	207,56
330,788	137,52
330,995	188,31
331,201	185,65
331,408	209,2
331,615	185,44
331,822	199,78
332,029	231,11
332,235	220,46
332,442	219,03
332,649	228,66
332,856	226,4
333,062	238,69
333,269	222,92
333,476	257,94
333,683	245,04
333,889	261,22
334,096	265,11
334,303	320,61
334,509	299,72
334,716	313,85
334,923	340,88
335,129	318,15
335,336	369,35
335,543	350,51
335,749	326,75
335,956	383,48
336,163	328,8
336,369	354,2
336,576	358,5
336,782	374,68
336,989	361,77
337,196	396,18
337,402	406,42
337,609	421,16
337,815	436,52
338,022	492,84
338,228	505,95
338,435	602,41
338,641	554,9
338,848	569,85
339,054	571,49
339,261	588,69
339,467	556,54
339,674	649,1
339,88	636
340,087	642,14
340,293	647,26
340,5	674,5
340,706	679
340,912	636
341,119	659,96
341,325	671,43
341,532	722,01
341,738	736,35
341,944	812,74
342,151	805,16
342,357	782,43
342,563	852,88
342,77	819,49
342,976	833,22
343,182	901,62
343,389	804,75
343,595	778,13
343,801	731,43
344,007	803,93
344,214	772,19
344,42	829,73
344,626	882,57
344,832	904,28
345,039	954,25
345,245	947,7
345,451	980,26
345,657	1058,7
345,864	949,95
346,07	1034,74
346,276	1065,46
346,482	1128,33
346,688	1115,43
346,894	1095,15
347,1	1125,87
347,307	1129,15
347,513	1173,18
347,719	1164,37
347,925	1167,44
348,131	1170,31
348,337	1260,83
348,543	1187,31
348,749	1160,28
348,955	1288,48
349,161	1231,96
349,367	1321,45
349,573	1421,39
349,779	1453,34
349,985	1506,18
350,191	1525,63
350,397	1534,24
350,603	1582,57
350,809	1486,11
351,015	1584,41
351,221	1505,36
351,427	1574,17
351,633	1531,57
351,839	1577,65
352,045	1554,72
352,251	1595,47
352,457	1625,78
352,663	1701,15
352,869	1684,56
353,075	1807,84
353,28	1810,71
353,486	1899,8
353,692	1915,57
353,898	1946,49
354,104	2021,24
354,31	2031,48
354,515	2023,5
354,721	2091,08
354,927	1999,12
355,133	2058,31
355,339	1997,49
355,544	2019,6
355,75	1913,52
355,956	1917,82
356,162	1854,54
356,367	1806,41
356,573	1770,57
356,779	1714,25
356,984	1757,67
357,19	1786,96
357,396	1691,31
357,602	1741,49
357,807	1604,48
358,013	1619,64
358,218	1659,78
358,424	1748,25
358,63	1894,27
358,835	2071,83
359,041	2120,16
359,247	2279,49
359,452	2397,25
359,658	2398,07
359,863	2342,16
360,069	2321,07
360,274	2286,05
360,48	2279,9
360,685	2239,15
360,891	2244,47
361,097	2180,17
361,302	2304,27
361,508	2346,05
361,713	2345,03
361,918	2561,5
362,124	2558,83
362,329	2620,07
362,535	2664,92
362,74	2610,03
362,946	2712,84
363,151	2717,55
363,357	2736,8
363,562	2802,34
363,767	2801,93
363,973	2828,76
364,178	2787,8
364,383	2833,67
364,589	2995,46
364,794	3042,16
365	3236,71
365,205	3349,76
365,41	3442,94
365,615	3554,76
365,821	3522,2
366,026	3595,31
366,231	3572,58
366,437	3634,02
366,642	3532,85
366,847	3559,27
367,052	3591,63
367,258	3506,43
367,463	3498,65
367,668	3392,56
367,873	3503,77
368,078	3448,47
368,284	3503,56
368,489	3518,1
368,694	3693,82
368,899	3780,45
369,104	3894,72
369,309	3850,28
369,515	3878,75
369,72	3781,68
369,925	3710,61
370,13	3757,31
370,335	3717,58
370,54	3747,48
370,745	3793,35
370,95	3770,21
371,155	3810,14
371,36	3622,55
371,565	3674,36
371,77	3542,06
371,975	3453,59
372,18	3520,97
372,385	3447,45
372,59	3247,16
372,795	3206,81
373	3108,71
373,205	3076,97
373,41	3051,37
373,615	3131,04
373,82	2975,19
374,025	3030,28
374,23	2969,45
374,435	3142,51
374,64	3233,03
374,845	3375,56
375,05	3518,51
375,254	3546,77
375,459	3575,45
375,664	3544,32
375,869	3579,34
376,074	3679,69
376,279	3732,73
376,483	3827,35
376,688	3883,05
376,893	4132,29
377,098	4309,85
377,303	4341,59
377,507	4420,64
377,712	4556,01
377,917	4383,98
378,122	4355,31
378,326	4124,1
378,531	3922,99
378,736	3831,03
378,94	3745,02
379,145	3709,18
379,35	3737,44
379,554	3794,37
379,759	3828,78
379,964	3878,75
380,168	3979,51
380,373	3975,41
380,578	4016,37
380,782	3912,95
380,987	3701,81
381,191	3483,49
381,396	3313,51
381,601	3258,83
381,805	3092,13
382,01	2858,25
382,214	2722,67
382,419	2628,88
382,623	2541,84
382,828	2505,79
383,032	2551,87
383,237	2567,44
383,441	2700,76
383,646	2982,56
383,85	3159,91
384,055	3341,57
384,259	3446,63
384,464	3513,6
384,668	3561,93
384,872	3434,75
385,077	3451,95
385,281	3487,38
385,486	3447,86
385,69	3553,94
385,894	3708,36
386,099	3595,52
386,303	3624,19
386,507	3757,31
386,712	3596,34
386,916	3594,7
387,12	3696,48
387,325	3694,23
387,529	3660,85
387,733	3576,06
387,937	3787,21
388,142	3693
388,346	3886,53
388,55	3930,36
388,754	4172,84
388,959	4251,28
389,163	4453,21
389,367	4495,19
389,571	4530
389,775	4603,32
389,98	4719,24
390,184	4774,94
390,388	5011,69
390,592	4844,78
390,796	5045,07
391	4884,51
391,204	4875,09
391,409	4670,09
391,613	4431,5
391,817	4184,1
392,021	3951,25
392,225	3523,84
392,429	3109,33
392,633	2866,44
392,837	2717,35
393,041	2716,94
393,245	2915,8
393,449	3174,45
393,653	3500,7
393,857	3817,52
394,061	4268,68
394,265	4399,75
394,469	4795,63
394,673	4809,76
394,877	4971,14
395,081	5091,35
395,285	4673,57
395,489	4309,44
395,693	4088,26
395,896	3690,13
396,1	3375,97
396,304	3418,78
396,508	3324,57
396,712	3565
396,916	3930,97
397,12	4470,82
397,323	4877,54
397,527	5262,77
397,731	5717,42
397,935	5803,64
398,139	6129,47
398,342	6390,17
398,546	6405,33
398,75	6577,15
398,954	6681,81
399,157	6612,38
399,361	6689,79
399,565	6733,62
399,769	6874,31
399,972	6889,06
400,176	7030,78
400,38	7001,7
400,583	7148,54
400,787	7406,38
400,991	7226,97
401,194	7342,68
401,398	7481,74
401,601	7366,65
401,805	7284,73
402,009	7497,51
402,212	7302,13
402,416	7393,88
402,619	7433,82
402,823	7307,66
403,026	7297,22
403,23	7104,71
403,433	7336,95
403,637	7103,07
403,841	7167,17
404,044	7317,7
404,247	7381,8
404,451	7302,75
404,654	7254,42
404,858	7330,81
405,061	7168,81
405,265	7104,71
405,468	7380,78
405,672	7026,89
405,875	6925,51
406,078	7176,59
406,282	7191,14
406,485	7021,77
406,689	7421,12
406,892	7453,68
407,095	7165,33
407,299	7191,14
407,502	7530,07
407,705	7628,17
407,909	7798,97
408,112	7982,27
408,315	8168,43
408,518	7974,48
408,722	7647,42
408,925	7514,51
409,128	7565,71
409,331	7467,61
409,535	7447,95
409,738	7383,23
409,941	7497,31
410,144	7504,88
410,347	7970,39
410,551	7889,7
410,754	8079,75
410,957	8169,45
411,16	8281,06
411,363	8231,91
411,566	8380,8
411,769	8414,59
411,973	8405,58
412,176	8214,91
412,379	8501,22
412,582	8284,55
412,785	8228,64
412,988	8482,38
413,191	8222,7
413,394	8191,77
413,597	8214,71
413,8	8331,85
414,003	8499,58
414,206	8215,94
414,409	8506,55
414,612	8163,92
414,815	8382,23
415,018	8313,22
415,221	8469,89
415,424	8474,6
415,627	8516,38
415,83	8514,74
416,033	8461,49
416,235	8604,64
416,438	8612,22
416,641	8114,36
416,844	8254,85
417,047	8169,04
417,25	8033,46
417,453	8223,52
417,655	8010,94
417,858	8293,76
418,061	8010,94
418,264	7918,37
418,467	8200,78
418,669	8134,02
418,872	8212,87
419,075	8114,36
419,278	8074,42
419,48	8211,84
419,683	8337,18
419,886	8224,74
420,089	8879,48
420,291	8463,13
420,494	8739,4
420,697	8484,22
420,899	8673,05
421,102	8092,45
421,305	8370,56
421,507	8071,97
421,71	8262,63
421,912	8148,97
422,115	8187,68
422,318	7856,32
422,52	8087,12
422,723	8215,32
422,925	8337,79
423,128	8090,6
423,33	8092,24
423,533	8024,86
423,735	8335,34
423,938	8338,2
424,14	8321,61
424,343	8091,42
424,545	8438,14
424,748	8099,2
424,95	8035,92
425,153	8508,39
425,355	8339,84
425,558	8565,73
425,76	8220,65
425,962	8036,74
426,165	7797,13
426,367	8361,96
426,57	8255,26
426,772	7967,72
426,974	8165,76
427,177	7888,26
427,379	8008,07
427,581	8057,02
427,784	8257,51
427,986	7542,36
428,188	7988,41
428,39	7975,71
428,593	7505,09
428,795	7736,92
428,997	7382,01
429,2	6776,42
429,402	6895,82
429,604	6628,76
429,806	6372,15
430,008	6490,52
430,211	6737,71
430,413	7042,25
430,615	7397,57
430,817	8073,4
431,019	8351,1
431,221	8474,19
431,423	8224,74
431,626	8485,45
431,828	8498,56
432,03	8649,29
432,232	8698,03
432,434	9013,01
432,636	9238,49
432,838	8572,69
433,04	8523,34
433,242	8735,3
433,444	8285,57
433,646	8475,62
433,848	8788,14
434,05	8991,5
434,252	8864,12
434,454	8872,93
434,656	9188,52
434,858	9392,7
435,06	9498,17
435,262	9482,81
435,464	9984,36
435,666	10093,31
435,868	9647,26
436,07	10114
436,271	10266,57
436,473	9690,07
436,675	9846,74
436,877	9556,95
437,079	9065,64
437,281	9181,97
437,482	9273,71
437,684	9338,23
437,886	9025,91
438,088	8992,73
438,29	9096,16
438,491	9365,46
438,693	9203,47
438,895	9536,47
439,097	10167,04
439,298	9454,55
439,5	9530,32
439,702	9500,83
439,903	9359,73
440,105	9869,26
440,307	10197,76
440,508	10248,96
440,71	10647,29
440,912	10268,41
441,113	10250,6
441,315	10458,05
441,517	10628,04
441,718	10819,11
441,92	10701,35
442,121	10426,31
442,323	10756,44
442,524	10582,16
442,726	10771,39
442,928	10515,19
443,129	10933,59
443,331	10196,94
443,532	10652,2
443,734	10742,52
443,935	10856,59
444,136	10092,29
444,338	10598,75
444,539	10456,42
444,741	10291,55
444,942	9990,91
445,144	10103,14
445,345	10468,09
445,546	10482,22
445,748	10118,91
445,949	10179,94
446,151	10443,51
446,352	10752,35
446,553	10758,08
446,755	10485,7
446,956	11101,53
447,157	11006,71
447,359	10739,24
447,56	10882,8
447,761	11016,74
447,962	11286,05
448,164	11256,35
448,365	10540,38
448,566	11083,3
448,767	10845,33
448,969	11356,7
449,17	11169,93
449,371	11027,19
449,572	11480,61
449,773	11519,52
449,974	11683,35
450,176	11692,16
450,377	11947,54
450,578	11748,07
450,779	11163,99
450,98	10742,31
451,181	11104,19
451,382	10909,84
451,583	11023,5
451,784	10700,12
451,986	11461,35
452,187	10542,64
452,388	10634,18
452,589	10225
452,79	11062
452,991	10475,05
453,192	11202,7
453,393	11045
453,594	11569,28
453,795	10773,85
453,995	10721,63
454,196	10778,15
454,397	11110,54
454,598	10963,29
454,799	11349,13
455	11481,42
455,201	11354,45
455,402	11504,57
455,603	11261,68
455,804	11981,95
456,004	12295,08
456,205	11607,78
456,406	11397,46
456,607	11499,86
456,808	11718,37
457,008	11155,8
457,209	11184,47
457,41	12203,54
457,611	11393,36
457,811	11551,47
458,012	11876,89
458,213	11900,44
458,414	11448,66
458,614	11595,09
458,815	11582,18
459,016	11595,7
459,216	11954,1
459,417	11996,49
459,618	12045,23
459,818	12108,31
460,019	11891,02
460,22	12040,11
460,42	12344,44
460,621	11897,16
460,821	12373,32
461,022	12249
461,223	11986,66
461,423	12372,7
461,624	12400,76
461,824	12813,22
462,025	12212,34
462,225	12650,81
462,426	13066,55
462,626	12579,96
462,827	12445,61
463,027	12353,86
463,228	12556,81
463,428	12110,56
463,628	12528,76
463,829	12804,21
464,029	12324,16
464,23	12762,02
464,43	12514,01
464,63	12557,22
464,831	12981,77
465,031	12946,34
465,231	13157,28
465,432	13133,52
465,632	12864,62
465,832	12325,6
466,033	13047,3
466,233	12786,19
466,433	12697,71
466,634	13184,93
466,834	13557,86
467,034	13009,41
467,234	13803
467,435	13417,78
467,635	13906,83
467,835	12988,73
468,035	13888,81
468,235	13604,35
468,436	13666,61
468,636	13533,28
468,836	13490,28
469,036	14066,78
469,236	13509,53
469,436	13417,57
469,636	13866,69
469,836	13788,05
470,037	13987,52
470,237	13957,42
470,437	14369,68
470,637	14030,33
470,837	14549,28
471,037	14853,61
471,237	15184,15
471,437	14966,25
471,637	15222,86
471,837	15530,05
472,037	15130,09
472,237	14893,14
472,437	15384,24
472,637	15774,38
472,837	15478,24
473,036	15251,12
473,236	15723,59
473,436	15522,48
473,636	16013,17
473,836	15680,58
474,036	16282,89
474,236	16528,23
474,436	16610,56
474,635	16288,83
474,835	16279,82
475,035	16867,38
475,235	17121,94
475,435	16901,99
475,634	16642,92
475,834	17414,8
476,034	17493,65
476,234	17588,47
476,433	17744,73
476,633	17831,77
476,833	18203,68
477,033	18286,62
477,232	18592,38
477,432	17865,15
477,632	18587,47
477,831	18544,87
478,031	18562,07
478,231	19163,97
478,43	19038,02
478,63	19396,82
478,829	19431,43
479,029	19614,52
479,229	19891,2
479,428	20184,88
479,628	20232,4
479,827	20333,56
480,027	20378,62
480,226	20430,84
480,426	21039,09
480,625	20714,08
480,825	21552,31
481,024	21373,32
481,224	21791,72
481,423	21526,1
481,623	21808,72
481,822	21807,08
482,021	22031,74
482,221	22212,58
482,42	22006,35
482,62	22232,44
482,819	22148,07
483,018	22185,34
483,218	22002,66
483,417	22564,42
483,616	22465,91
483,816	22154,62
484,015	22223,84
484,214	21963,75
484,414	21760,18
484,613	20737,42
484,812	20405,04
485,011	20412,62
485,211	19953,87
485,41	20092,52
485,609	20401,76
485,808	20481,02
486,008	21123,67
486,207	21040,93
486,406	21484,11
486,605	21547,6
486,804	22106,29
487,003	22268,28
487,203	22713,51
487,402	22393,21
487,601	22618,69
487,8	22539,43
487,999	22826,15
488,198	23124,33
488,397	23580,41
488,596	23751,01
488,795	24044,07
488,994	24315,43
489,193	24504,25
489,392	24542,14
489,591	24600,71
489,79	24461,45
489,989	24674,85
490,188	24282,87
490,387	24269,15
490,586	23832,11
490,785	24153,03
490,984	23805,9
491,183	23956,83
491,382	23779,48
491,581	24218,97
491,779	24302,94
491,978	24578,18
492,177	24528,01
492,376	24692,05
492,575	24683,66
492,774	24538,66
492,972	24718,88
493,171	24853,43
493,37	25061,71
493,569	25543,8
493,768	25377,51
493,966	25430,14
494,165	25209,16
494,364	25425,22
494,563	25059,25
494,761	25472,12
494,96	25264,66
495,159	25586,6
495,357	25045,74
495,556	25480,72
495,755	25149,16
495,953	25631,46
496,152	25437,31
496,35	25525,78
496,549	25092,02
496,748	25091
496,946	24865,51
497,145	24670,34
497,343	24500,36
497,542	24631,43
497,74	24423,77
497,939	25022,39
498,137	25030,17
498,336	24874,73
498,534	24469,44
498,733	24687,96
498,931	24470,67
499,13	24254,2
499,328	23931,23
499,527	24167,57
499,725	23613,18
499,924	23672,78
500,122	23377,05
500,32	23574,27
500,519	23363,53
500,717	23233,49
500,915	23269,53
501,114	23619,33
501,312	23495,42
501,51	23736,06
501,709	23560,55
501,907	23824,74
502,105	23626,49
502,304	23733,4
502,502	23250,28
502,7	23215,88
502,898	23085,63
503,097	23143,38
503,295	23218,95
503,493	23504,64
503,691	23562,19
503,889	23549,08
504,088	23689,98
504,286	24005,57
504,484	24093,43
504,682	24350,45
504,88	24208,12
505,078	24398,58
505,276	24378,3
505,474	24376,05
505,672	23930,82
505,871	24030,97
506,069	24068,65
506,267	24000,45
506,465	23739,75
506,663	23640,01
506,861	23531,88
507,059	23610,72
507,257	23691,82
507,455	24140,33
507,653	24018,88
507,851	24312,77
508,049	23891,3
508,246	24278,36
508,444	23956,01
508,642	24173,51
508,84	23945,77
509,038	24021,96
509,236	24039,98
509,434	23927,95
509,632	24145,65
509,829	24322,8
510,027	24199,93
510,225	24499,75
510,423	24580,64
510,621	24560,78
510,818	24718,68
511,016	24652,73
511,214	24275,29
511,412	24431,14
511,609	24168,59
511,807	24382,4
512,005	23970,76
512,203	24148,93
512,4	24057,8
512,598	24150,16
512,796	23856,28
512,993	23981,41
513,191	24005,16
513,389	23859,35
513,586	24237,4
513,784	24150,57
513,981	24213,44
514,179	24470,26
514,377	24431,96
514,574	24484,39
514,772	24356,19
514,969	24184,77
515,167	23587,38
515,364	23204
515,562	22592,06
515,759	22374,37
515,957	22023,75
516,154	22454,85
516,352	22587,97
516,549	22592,68
516,746	22605,79
516,944	22757,95
517,141	22898,85
517,339	22686,48
517,536	22921,79
517,733	22818,16
517,931	23467,16
518,128	23711,89
518,325	23881,88
518,523	24205,25
518,72	24211,39
518,917	24784,83
519,115	24646,59
519,312	24772,54
519,509	24762,5
519,707	24884,56
519,904	25010,72
520,101	25314,22
520,298	25374,23
520,495	25657,87
520,693	25441,2
520,89	25621,63
521,087	25357,85
521,284	25701,09
521,481	25252,79
521,678	25332,45
521,876	25193,19
522,073	25529,26
522,27	25435,87
522,467	25663,61
522,664	25985,34
522,861	26309,33
523,058	26189,53
523,255	26353,16
523,452	26357,26
523,649	26299,3
523,846	26206,52
524,043	26314,45
524,24	26371,39
524,437	26023,03
524,634	25913,05
524,831	25778,29
525,028	25264,05
525,225	25008,46
525,422	24398,58
525,619	24490,12
525,816	24000,45
526,013	24626,31
526,209	24423,77
526,406	24671,37
526,603	24673,42
526,8	25065,81
526,997	25213,87
527,194	25685,73
527,39	25567,76
527,587	25794,47
527,784	26092,86
527,981	26215,13
528,177	26069,52
528,374	26096,96
528,571	25768,26
528,768	26127,68
528,964	26022,82
529,161	26227
529,358	26451,05
529,554	26310,56
529,751	26444,29
529,948	26485,46
530,144	26338
530,341	26567,38
530,537	26334,73
530,734	26365,65
530,931	25792,02
531,127	25764,78
531,324	25537,04
531,52	25213,26
531,717	25172,1
531,913	25177,01
532,11	25297,64
532,306	25583,33
532,503	25470,69
532,699	25430,96
532,896	25446,52
533,092	25469,05
533,289	25536,43
533,485	25967,94
533,682	25703,13
533,878	25934,96
534,074	25727,51
534,271	26247,89
534,467	26056,82
534,664	25991,08
534,86	26041,46
535,056	26068,49
535,253	25689,41
535,449	25745,12
535,645	25279
535,841	25446,11
536,038	25326,31
536,234	25309,11
536,43	25498,13
536,626	25619,78
536,823	25423,59
537,019	25666,89
537,215	25569,2
537,411	25530,49
537,607	25274,49
537,804	25277,16
538	24996,58
538,196	24938,42
538,392	24835,61
538,588	24679,76
538,784	24536,61
538,98	24427,25
539,176	24170,43
539,373	24420,49
539,569	24008,85
539,765	24146,88
539,961	24364,17
540,157	24371,95
540,353	24235,56
540,549	24660,51
540,745	24502,41
540,941	24399,19
541,137	24303,76
541,333	24233,51
541,528	24344,1
541,724	24318,3
541,92	24079,09
542,116	24240,27
542,312	24239,45
542,508	24375,23
542,704	24582,69
542,9	24535,38
543,096	24462,07
543,291	24517,97
543,487	24423,97
543,683	24456,54
543,879	24373,59
544,075	24116,57
544,27	24387,93
544,466	24249,28
544,662	24254,4
544,858	24496,68
545,053	24265,26
545,249	24320,96
545,445	24220,61
545,64	24300,07
545,836	23976,7
546,032	23960,93
546,227	23876,55
546,423	23670,32
546,619	23727,66
546,814	23936,56
547,01	23754,29
547,205	23873,07
547,401	23577,75
547,597	24128,45
547,792	23739,54
547,988	24018,68
548,183	23649,64
548,379	24036,09
548,574	23760,43
548,77	23832,11
548,965	23605,2
549,161	23636,12
549,356	23377,87
549,552	23692,85
549,747	23505,25
549,942	23432,14
550,138	23644,93
550,333	23344,69
550,529	23666,63
550,724	23658,85
550,919	23516,93
551,115	23568,95
551,31	23253,76
551,505	23426,61
551,701	23125,56
551,896	23125,15
552,091	23152,39
552,287	23275,06
552,482	23172,05
552,677	23181,27
552,872	22907,66
553,067	23040,77
553,263	23255,4
553,458	23228,37
553,653	23090,95
553,848	23184,75
554,043	22963,16
554,239	23110,82
554,434	22901,92
554,629	23006,98
554,824	22758,56
555,019	22613,57
555,214	22574,25
555,409	22431,09
555,604	22304,53
555,799	22308,63
555,994	22163,83
556,189	22151,96
556,384	22135,37
556,579	22249,03
556,774	21976,86
556,969	21914,6
557,164	21681,95
557,359	21605,35
557,554	21315,57
557,749	21393,18
557,944	21180,81
558,139	21167,09
558,334	21146,61
558,529	21223,61
558,724	21132,68
558,918	21278,91
559,113	21224,23
559,308	21490,05
559,503	21355,71
559,698	21504,39
559,893	21256,38
560,087	21273,38
560,282	21046,05
560,477	21045,44
560,672	20982,16
560,866	20930,75
561,061	20895,53
561,256	21230,17
561,45	20901,26
561,645	21229,96
561,84	21074,32
562,034	20984,61
562,229	20805,83
562,424	20927,27
562,618	20785,14
562,813	20814,84
563,008	20605,33
563,202	20680,7
563,397	20504,37
563,591	20690,73
563,786	20600,82
563,98	20471,39
564,175	20227,68
564,369	19975,58
564,564	20137,37
564,758	20159,28
564,953	19909,84
565,147	20084,33
565,342	19932,57
565,536	20214,37
565,731	20113
565,925	20296,09
566,119	20125,7
566,314	20226,87
566,508	19910,45
566,703	19994,63
566,897	19577,86
567,091	19726,14
567,286	19631,52
567,48	19481,2
567,674	19295,45
567,868	19478,54
568,063	19233,6
568,257	19507
568,451	19336,82
568,646	19259,41
568,84	19010,17
569,034	18970,23
569,228	18766,05
569,422	18805,17
569,616	18521,93
569,811	18539,13
570,005	18460,9
570,199	18746,39
570,393	18841,62
570,587	18796,77
570,781	18878,69
570,975	18987,84
571,169	18829,95
571,364	18929,89
571,558	18928,86
571,752	18980,06
571,946	18769,53
572,14	19063,62
572,334	18850,63
572,528	18983,95
572,722	18776,7
572,916	18808,65
573,109	18655,25
573,303	18754,38
573,497	18453,94
573,691	18516,61
573,885	18324,51
574,079	18476,88
574,273	18239,72
574,467	18291,54
574,661	18209
574,854	18340,48
575,048	18241,56
575,242	18283,55
575,436	18265,94
575,63	18367,51
575,823	18226,41
576,017	18296,25
576,211	18110,49
576,405	18352,36
576,598	17921,06
576,792	18084,69
576,986	17780,36
577,18	17765,82
577,373	17834,22
577,567	18010,35
577,761	17947,07
577,954	18019,36
578,148	17952,39
578,341	18181,97
578,535	18185,86
578,729	18323,89
578,922	18093,29
579,116	18309,76
579,309	18075,06
579,503	18286,82
579,696	18222,31
579,89	18386,97
580,083	18240,54
580,277	18362,4
580,47	18447,59
580,664	18503,91
580,857	18425,27
581,051	18446,98
581,244	18427,52
581,437	18682,7
581,631	18528,08
581,824	18618,39
582,018	18685,15
582,211	18702,15
582,404	18787,35
582,598	18689,46
582,791	18726,73
582,984	18561,25
583,178	18697,24
583,371	18707,89
583,564	18482,41
583,757	18557,77
583,951	18356,46
584,144	18240,34
584,337	18129,75
584,53	18186,88
584,723	17975,33
584,917	18220,27
585,11	18024,68
585,303	18373,86
585,496	17961,61
585,689	18244,23
585,882	18110,7
586,075	18144,49
586,268	17982,7
586,462	17930,27
586,655	17722,81
586,848	17665,27
587,041	17343,12
587,234	17063,37
587,427	16614,45
587,62	16386,31
587,813	16085,67
588,006	15974,67
588,199	15740,59
588,392	15847,49
588,585	15912,82
588,777	16195,03
588,97	16148,13
589,163	16529,46
589,356	16479,9
589,549	16518,2
589,742	16382,01
589,935	16484,2
590,128	16428,09
590,32	16507,55
590,513	16271,42
590,706	16513,9
590,899	16282,68
591,092	16530,49
591,284	16401,26
591,477	16579,84
591,67	16590,49
591,863	16678,56
592,055	16534,79
592,248	16648,65
592,441	16597,66
592,633	16598,68
592,826	16403,72
593,019	16345,76
593,211	16184,79
593,404	16187,25
593,596	16134,82
593,789	16164,11
593,982	16216,53
594,174	16166,97
594,367	16332,45
594,559	16416,21
594,752	16342,89
594,944	16387,33
595,137	16407,2
595,329	16461,06
595,522	16480,52
595,714	16453,69
595,907	16367,67
596,099	16386,31
596,292	16296,61
596,484	16345,76
596,676	16200,56
596,869	16156,53
597,061	16221,45
597,253	16271,83
597,446	16132,16
597,638	16410,89
597,83	16169,84
598,023	16278,79
598,215	16214,08
598,407	16183,36
598,6	16171,27
598,792	16235,78
598,984	16057,61
599,176	16020,34
599,369	16002,11
599,561	16224,32
599,753	15881,08
599,945	16053,11
600,137	15887,02
600,329	15771,51
600,522	15652,93
600,714	15797,52
600,906	15670,54
601,098	15846,67
601,29	15717,03
601,482	15853,63
601,674	15970,37
601,866	15941,49
602,058	15804,07
602,25	15898,89
602,442	15943,74
602,634	16005,18
602,826	15747,55
603,018	15803,87
603,21	15880,87
603,402	15873,7
603,594	15812,88
603,786	15861,62
603,978	15820,46
604,17	15779,09
604,362	15813,29
604,554	15657,03
604,745	15668,7
604,937	15836,43
605,129	15717,24
605,321	15549,71
605,513	15563,44
605,704	15668,7
605,896	15487,25
606,088	15570,81
606,28	15394,48
606,471	15496,06
606,663	15257,47
606,855	15342,67
607,047	15335,09
607,238	15380,96
607,43	15015,4
607,622	15316,45
607,813	15146,26
608,005	15052,06
608,197	15106,33
608,388	15125,99
608,58	14844,39
608,771	15012,74
608,963	14782,55
609,154	14826,99
609,346	14686,5
609,537	14883,72
609,729	14822,07
609,921	14824,53
610,112	14723,15
610,303	14712,1
610,495	14569,97
610,686	14570,79
610,878	14461,83
611,069	14410,02
611,261	14434,8
611,452	14362,3
611,643	14188,84
611,835	14311,92
612,026	14053,67
612,217	14141,53
612,409	14039,34
612,6	13983,84
612,791	13914,41
612,983	13984,04
613,174	13972,98
613,365	14042,2
613,557	13861,57
613,748	13942,67
613,939	13866,9
614,13	13890,25
614,321	13644,9
614,513	13748,32
614,704	13374,16
614,895	13558,68
615,086	13294,29
615,277	13437,85
615,468	13289,58
615,659	13484,34
615,851	13371,9
616,042	13401,19
616,233	13451,37
616,424	13558,27
616,615	13591,65
616,806	13651,86
616,997	13408,15
617,188	13583,26
617,379	13663,74
617,57	13652,07
617,761	13577,73
617,952	13618,07
618,143	13538,2
618,334	13668,86
618,524	13613,16
618,715	13713,71
618,906	13633,23
619,097	13762,25
619,288	13767,16
619,479	13815,49
619,67	13650,22
619,86	13792,56
620,051	13692,62
620,242	13700,81
620,433	13535,95
620,624	13684,42
620,814	13734,6
621,005	13786,82
621,196	13682,58
621,386	13819,8
621,577	13752,62
621,768	13651,86
621,958	13657,8
622,149	13723,13
622,34	13674,39
622,53	13770,64
622,721	13619,5
622,912	13757,54
623,102	13700,19
623,293	13752,01
623,483	13635,68
623,674	13633,64
623,864	13673,37
624,055	13593,49
624,245	13517,72
624,436	13619,91
624,626	13617,46
624,817	13794,81
625,007	13715,14
625,198	13864,85
625,388	13735,42
625,579	13810,37
625,769	13733,58
625,959	13707,77
626,15	13320,71
626,34	13224,25
626,531	13272,17
626,721	13256,19
626,911	13094,61
627,101	13285,89
627,292	13190,86
627,482	13345,9
627,672	13347,94
627,863	13376
628,053	13363,71
628,243	13272,78
628,433	13184,93
628,623	13204,79
628,814	13132,5
629,004	13316,81
629,194	13288,96
629,384	13270,12
629,574	13338,32
629,764	13401,19
629,955	13219,33
630,145	13259,68
630,335	13314,97
630,525	13283,02
630,715	13168,13
630,905	13412,86
631,095	13270,94
631,285	13453,41
631,475	13361,87
631,665	13596,57
631,855	13416,35
632,045	13408,56
632,235	13325,83
632,425	13335,86
632,615	13298,18
632,805	13389,31
632,994	13214,62
633,184	13616,84
633,374	13483,11
633,564	13332,17
633,754	13515,47
633,944	13492,73
634,133	13279,95
634,323	13451,57
634,513	13310,06
634,703	13424,95
634,893	13282,61
635,082	13437,23
635,272	13247,8
635,462	13468,36
635,651	13424,54
635,841	13422,28
636,031	13335,86
636,221	13456,28
636,41	13407,33
636,6	13311,08
636,789	13357,36
636,979	13357,77
637,169	13326,03
637,358	13373,95
637,548	13378,05
637,737	13190,86
637,927	13164,86
638,116	13247,18
638,306	13127,79
638,495	13120,21
638,685	13121,23
638,874	13094,61
639,064	13002,25
639,253	13063,48
639,443	12966,61
639,632	13073,52
639,822	12779,02
640,011	12918,48
640,2	12807,48
640,39	12853,36
640,579	12790,08
640,768	12743,18
640,958	12791,1
641,147	12867,49
641,336	12839,23
641,526	12798,27
641,715	12733,96
641,904	12822,64
642,093	12603,71
642,283	12676,82
642,472	12566,23
642,661	12658,8
642,85	12671,09
643,039	12688,7
643,228	12575,45
643,418	12609,86
643,607	12501,11
643,796	12482,47
643,985	12374,34
644,174	12305,53
644,363	12353,86
644,552	12321,5
644,741	12045,44
644,93	12165,04
645,119	11989,94
645,308	12101,75
645,497	11962,49
645,686	11912,52
645,875	11869,72
646,064	11773,47
646,253	11593,04
646,442	11853,75
646,631	11739,06
646,82	11594,27
647,009	11602,66
647,198	11611,47
647,387	11536,92
647,575	11429
647,764	11704,86
647,953	11314,92
648,142	11304,07
648,331	11344,21
648,519	11271,3
648,708	11523,41
648,897	11327,01
649,086	11622,94
649,274	11561,09
649,463	11575,84
649,652	11444,15
649,84	11462,58
650,029	11346,87
650,218	11360,59
650,406	11261,68
650,595	11201,06
650,784	11250
650,972	11426,33
651,161	11266,59
651,349	11479,58
651,538	11408,11
651,726	11374,93
651,915	11337,04
652,104	11426,95
652,292	11407,7
652,481	11323,94
652,669	11302,02
652,857	11388,65
653,046	11192,46
653,234	11174,64
653,423	11035,99
653,611	11039,68
653,8	10771,6
653,988	10786,55
654,176	10420,17
654,365	10320,02
654,553	10027,78
654,741	9937,26
654,93	9713,82
655,118	9686,18
655,306	9728,36
655,494	9875,61
655,683	9958,56
655,871	10095,97
656,059	10263,09
656,247	10313,47
656,436	10424,88
656,624	10553,9
656,812	10513,15
657	10494,3
657,188	10580,11
657,376	10667,36
657,564	10619,84
657,753	10650,36
657,941	10575,61
658,129	10679,03
658,317	10583,8
658,505	10669,81
658,693	10749,48
658,881	10751,53
659,069	10713,03
659,257	10707,91
659,445	10749,69
659,633	10884,03
659,821	10844,3
660,009	10865,4
660,197	10855,36
660,384	10867,85
660,572	10922,33
660,76	10870,11
660,948	10842,46
661,136	10714,67
661,324	10754,81
661,512	10841,84
661,699	10684,56
661,887	10722,04
662,075	10649,74
662,263	10692,55
662,451	10646,67
662,638	10646,88
662,826	10460,72
663,014	10593,84
663,201	10557,38
663,389	10550,62
663,577	10619,84
663,764	10712,62
663,952	10494,1
664,14	10493,28
664,327	10457,44
664,515	10537,31
664,702	10433,89
664,89	10517,24
665,078	10381,87
665,265	10413
665,453	10395,8
665,64	10346,03
665,828	10213,73
666,015	10293,19
666,203	10323,09
666,39	10317,77
666,578	10277,01
666,765	10306,71
666,952	10251,01
667,14	10323,71
667,327	10127,92
667,515	10222,74
667,702	10192,64
667,889	10180,76
668,077	10151,27
668,264	10103,35
668,451	10080,61
668,638	10170,32
668,826	9958,35
669,013	10069,35
669,2	10019,38
669,388	10063,62
669,575	9889,54
669,762	9906,33
669,949	9860,25
670,136	10273,94
670,323	9762,97
670,511	9824,21
670,698	9812,33
670,885	9798,61
671,072	9701,13
671,259	9741,88
671,446	9710,34
671,633	9710,55
671,82	9693,55
672,007	9691,3
672,194	9654,23
672,381	9700,31
672,568	9685,15
672,755	9658,12
672,942	9549,58
673,129	9568,62
673,316	9602,41
673,503	9535,24
673,69	9492,23
673,877	9582,55
674,064	9518,24
674,251	9377,14
674,437	9475,85
674,624	9353,59
674,811	9477,28
674,998	9415,64
675,185	9334,33
675,372	9429,16
675,558	9318,97
675,745	9298,9
675,932	9256,31
676,119	9313,65
676,305	9239,51
676,492	9339,66
676,679	9183,19
676,865	9230,91
677,052	9094,52
677,239	9272,28
677,425	9057,86
677,612	9297,27
677,798	9062,16
677,985	9108,44
678,172	9075,68
678,358	9098,82
678,545	9032,46
678,731	8934,78
678,918	8918,39
679,104	8973,28
679,291	9049,05
679,477	8861,66
679,664	8825,82
679,85	8945,22
680,036	8825,21
680,223	8780,15
680,409	8838,11
680,596	8782,82
680,782	8878,25
680,968	8762,54
681,155	8725,47
681,341	8756,81
681,527	8701,1
681,714	8745,95
681,9	8621,23
682,086	8603,21
682,272	8528,05
682,459	8558,15
682,645	8577,81
682,831	8503,06
683,017	8441,62
683,204	8435,89
683,39	8410,91
683,576	8424,01
683,762	8369,74
683,948	8408,45
684,134	8255,05
684,32	8232,12
684,506	8176,21
684,693	8056,81
684,879	7686,33
685,065	7360,5
685,251	6874,72
685,437	6562
685,623	6166,13
685,809	6066,19
685,995	5839,68
686,181	5904,4
686,366	5977,1
686,552	6066,8
686,738	6086,46
686,924	6154,04
687,11	6178,62
687,296	6171,25
687,482	6108,58
687,668	5968,5
687,853	6008,64
688,039	6004,34
688,225	5973,21
688,411	5975,46
688,597	6123,12
688,782	6172,07
688,968	6187,22
689,154	6231,25
689,34	6330,99
689,525	6428,27
689,711	6480,9
689,897	6560,98
690,082	6541,31
690,268	6607,26
690,454	6632,86
690,639	6702,9
690,825	6682,01
691,01	6752,66
691,196	6647,81
691,381	6711,91
691,567	6592,92
691,753	6658,46
691,938	6608,69
692,124	6640,03
692,309	6584,53
692,494	6557,49
692,68	6511,82
692,865	6553,81
693,051	6497,9
693,236	6563,84
693,422	6612,17
693,607	6562
693,792	6591,08
693,978	6581,86
694,163	6564,25
694,348	6577,97
694,534	6578,59
694,719	6718,46
694,904	6718,05
695,089	6765,98
695,275	6794,65
695,46	6828,44
695,645	6841,14
695,83	6859,36
696,016	6856,91
696,201	6822,71
696,386	6801,41
696,571	6831,31
696,756	6733,82
696,941	6832,54
697,126	6647,81
697,311	6690,61
697,497	6650,68
697,682	6559,54
697,867	6602,34
698,052	6534,15
698,237	6518,58
698,422	6513,87
698,607	6467,79
698,792	6463,7
698,977	6326,28
699,162	6424,99
699,347	6384,03
699,531	6381,37
699,716	6319,11
699,901	6247,02
700,086	6313,58
700,271	6247,64
700,456	6244,15
700,641	6246,61
700,825	6174,73
701,01	6200,94
701,195	6238,22
701,38	6211,39
701,565	6271,6
701,749	6291,87
701,934	6269,96
702,119	6386,69
702,303	6214,05
702,488	6260,95
702,673	6278,97
702,857	6355,97
703,042	6305,18
703,227	6414,75
703,411	6294,94
703,596	6359,25
703,78	6239,03
703,965	6252,76
704,15	6249,27
704,334	6287,78
704,519	6224,7
704,703	6252,14
704,888	6247,84
705,072	6234,32
705,257	6224,49
705,441	6278,15
705,625	6264,84
705,81	6325,87
705,994	6250,5
706,179	6233,71
706,363	6227,98
706,547	6280,81
706,732	6262,38
706,916	6227,98
707,1	6112,06
707,285	6255,42
707,469	6163,05
707,653	6156,71
707,837	6157,73
708,022	6198,89
708,206	6218,35
708,39	6050,42
708,574	6127,62
708,759	6119,23
708,943	6063,32
709,127	6097,11
709,311	6104,28
709,495	6051,65
709,679	6042,02
709,863	6041,2
710,047	6015,4
710,231	6138,68
710,415	5938,8
710,6	5937,98
710,784	6017,03
710,968	5959,49
711,152	5991,03
711,336	5890,47
711,519	5923,65
711,703	5911,77
711,887	5917,5
712,071	5895,79
712,255	5831,28
712,439	5886,58
712,623	5816,95
712,807	5790,32
712,991	5724,18
713,174	5764,11
713,358	5730,32
713,542	5680,35
713,726	5697,55
713,91	5629,15
714,093	5641,23
714,277	5636,52
714,461	5517,74
714,645	5398,14
714,828	5241,47
715,012	5190,88
715,196	5014,35
715,379	4890,24
715,563	4727,84
715,747	4578,95
715,93	4457,1
716,114	4368,83
716,297	4255,99
716,481	4200,49
716,664	4054,26
716,848	4022,31
717,031	3961,08
717,215	3832,47
717,398	3827,14
717,582	3799,9
717,765	3724,13
717,949	3627,87
718,132	3598,18
718,316	3543,5
718,499	3574,01
718,682	3603,71
718,866	3545,96
719,049	3703,44
719,233	3767,34
719,416	3891,24
719,599	4046,27
719,782	4110,79
719,966	4184,1
720,149	4285,27
720,332	4385,62
720,515	4418,19
720,699	4436,62
720,882	4499,28
721,065	4446,04
721,248	4419,62
721,431	4349,17
721,615	4271,55
721,798	4183,08
721,981	4126,96
722,164	3975,21
722,347	4000,19
722,53	3990,77
722,713	3927,08
722,896	3920,12
723,079	3853,77
723,262	3823,05
723,445	3864,21
723,628	3736,42
723,811	3815,47
723,994	3769,39
724,177	3799,9
724,36	3767,34
724,543	3815,47
724,726	3754,44
724,909	3809,12
725,091	3829,8
725,274	3819,36
725,457	3789,66
725,64	3728,43
725,823	3799,7
726,006	3663,1
726,188	3696,48
726,371	3733,96
726,554	3721,67
726,737	3789,46
726,919	3823,25
727,102	3815,67
727,285	3758,13
727,467	3728,63
727,65	3682,35
727,833	3731,3
728,015	3693,41
728,198	3726,79
728,38	3723,92
728,563	3730,07
728,746	3719,21
728,928	3732,32
729,111	3713,27
729,293	3773,89
729,476	3757,92
729,658	3774,51
729,841	3761,81
730,023	3910,08
730,205	3827,76
730,388	3885,3
730,57	3954,12
730,753	4019,04
730,935	4085,8
731,117	4153,79
731,3	4065,53
731,482	4171,61
731,664	4158,5
731,847	4279,13
732,029	4275,65
732,211	4286,09
732,394	4274,01
732,576	4366,78
732,758	4340,16
732,94	4363,91
733,122	4359,41
733,305	4437,85
733,487	4305,14
733,669	4388,08
733,851	4369,65
734,033	4328,28
734,215	4340,98
734,397	4290,6
734,58	4280,77
734,762	4277,9
734,944	4231,62
735,126	4189,43
735,308	4235,92
735,49	4236,94
735,672	4252,91
735,854	4281,59
736,036	4283,43
736,218	4291,62
736,399	4260,29
736,581	4249,43
736,763	4250,46
736,945	4240,01
737,127	4214,82
737,309	4266,84
737,491	4155,84
737,672	4160,55
737,854	4173,04
738,036	4212,77
738,218	4252,1
738,4	4196,6
738,581	4218,1
738,763	4172,02
738,945	4225,27
739,127	4192,09
739,308	4175,09
739,49	4201,31
739,672	4150,52
739,853	4204,58
740,035	4086,21
740,216	4189,02
740,398	4089,49
740,58	4123,89
740,761	4148,06
740,943	4102,59
741,124	4125,53
741,306	4141,3
741,487	4142,73
741,669	4165,26
741,85	4133,11
742,032	4191,48
742,213	4161,57
742,394	4160,76
742,576	4119,18
742,757	4114,68
742,939	4105,05
743,12	4104,85
743,301	4058,56
743,483	4046,68
743,664	4063,89
743,845	4056,92
744,027	4095,43
744,208	4058,15
744,389	4071,87
744,57	4067,57
744,752	4055,9
744,933	4040,34
745,114	4001,63
745,295	4047,71
745,476	4042,59
745,657	4033,99
745,839	4024,16
746,02	4038,08
746,201	4019,65
746,382	4022,93
746,563	3999,99
746,744	4016,17
746,925	3986,27
747,106	3993,85
747,287	4002,86
747,468	3992
747,649	3997,74
747,83	3953,91
748,011	3959,65
748,192	4003,27
748,373	3959,65
748,554	3906,19
748,735	3992
748,915	3962,51
749,096	3952,07
749,277	3947,97
749,458	3963,74
749,639	3960,26
749,82	3945,31
750	3920,73
750,181	3948,59
750,362	3950,02
750,543	4010,03
750,723	4024,57
750,904	3994,67
751,085	3970,09
751,265	3969,89
751,446	4020,47
751,627	3999,99
751,807	4002,65
751,988	3965,58
752,169	4047,91
752,349	4053,85
752,53	4120,62
752,71	4033,58
752,891	4117,95
753,071	4091,12
753,252	4080,07
753,432	4081,29
753,613	4095,22
753,793	4095,63
753,974	4082,32
754,154	4051,8
754,334	4105,26
754,515	4081,09
754,695	4132,29
754,876	4122,87
755,056	4125,12
755,236	4061,02
755,417	4069,62
755,597	4136,38
755,777	3978,49
755,957	4084,16
756,138	4107,92
756,318	4093,17
756,498	4067,16
756,678	4070,85
756,859	4070,44
757,039	3981,35
757,219	3936,91
757,399	3764,06
757,579	3518,72
757,759	3135,34
757,939	2785,75
758,119	2377,18
758,3	1988,68
758,48	1603,25
758,66	1249,16
758,84	973,09
759,02	793,49
759,2	623,71
759,38	522,74
759,56	562,68
759,74	615,31
759,919	742,9
760,099	931,31
760,279	1043,34
760,459	1100,89
760,639	1168,88
760,819	1178,09
760,999	1083,89
761,178	1087,16
761,358	1049,07
761,538	972,48
761,718	949,54
761,898	932,13
762,077	941,96
762,257	966,33
762,437	1009,34
762,616	1091,87
762,796	1137,54
762,976	1251,82
763,155	1313,26
763,335	1439,21
763,515	1546,93
763,694	1647,49
763,874	1726,13
764,053	1852,49
764,233	1981,92
764,413	2038,65
764,592	2163,37
764,772	2357,11
764,951	2365,1
765,131	2484,08
765,31	2583,21
765,489	2687,86
765,669	2703,63
765,848	2872,99
766,028	2856,61
766,207	2899,41
766,386	2983,58
766,566	3022,9
766,745	3106,46
766,924	3067,75
767,104	3189,81
767,283	3066,94
767,462	3188,18
767,642	3140,66
767,821	3128,99
768	3106,67
768,179	3110,35
768,358	3149,47
768,538	3189,81
768,717	3139,23
768,896	3145,78
769,075	3191,45
769,254	3119,57
769,433	3165,44
769,612	3125,51
769,791	3071,03
769,97	3092,94
770,149	3092,33
770,328	3028,64
770,507	3060,59
770,686	3060,59
770,865	3038,47
771,044	2999,35
771,223	2995,26
771,402	2944,67
771,581	3023,11
771,76	2939,35
771,939	2941,19
772,118	2927,67
772,297	2936,48
772,475	2875,86
772,654	2918,87
772,833	2892,86
773,012	2855,38
773,191	2823,23
773,369	2830,8
773,548	2815,04
773,727	2720,21
773,906	2776,33
774,084	2736,8
774,263	2773,05
774,442	2693,18
774,62	2719,4
774,799	2717,14
774,977	2707,52
775,156	2694,61
775,335	2658,16
775,513	2641,57
775,692	2595,29
775,87	2688,88
776,049	2591,4
776,227	2574,19
776,406	2605,73
776,584	2529,14
776,763	2543,68
776,941	2535,28
777,119	2495,35
777,298	2476,1
777,476	2539,99
777,655	2491,66
777,833	2460,94
778,011	2459,3
778,19	2473,84
778,368	2448,45
778,546	2432,47
778,725	2452,75
778,903	2350,97
779,081	2393,56
779,259	2396,02
779,437	2359,98
779,616	2326,39
779,794	2346,26
779,972	2359,98
780,15	2330,69
780,328	2322,5
780,506	2318,61
780,685	2286,05
780,863	2253,89
781,041	2222,35
781,219	2249,39
781,397	2245,5
781,575	2227,27
781,753	2214,57
781,931	2166,24
782,109	2213,34
782,287	2157,23
782,465	2201,46
782,643	2168,08
782,82	2136,54
782,998	2157,84
783,176	2177,09
783,354	2115,65
783,532	2115,65
783,71	2121,18
783,888	2068,96
784,065	2074,29
784,243	2052,78
784,421	2030,25
784,599	2019,19
784,776	2046,23
784,954	2038,45
785,132	2009,36
785,31	1908,19
785,487	1946,08
785,665	1977,21
785,842	1986,22
786,02	1988,07
786,198	1947,11
786,375	1891,81
786,553	1895,09
786,73	1880,96
786,908	1866,01
787,085	1858,02
787,263	1837,34
787,44	1815,01
787,618	1815,83
787,795	1748,66
787,973	1695,62
788,15	1737,39
788,328	1737,39
788,505	1740,67
788,682	1742,1
788,86	1705,45
789,037	1757,46
789,215	1727,15
789,392	1721,22
789,569	1717,73
789,746	1688,24
789,924	1671,24
790,101	1719,37
790,278	1707,9
790,455	1666,94
790,633	1622,09
790,81	1653,22
790,987	1593,83
791,164	1590,15
791,341	1593,63
791,518	1572,33
791,695	1593,22
791,873	1605,1
792,05	1584
792,227	1595,88
792,404	1584,21
792,581	1578,27
792,758	1617,18
792,935	1546,11
793,112	1577,45
793,289	1559,02
793,466	1576,01
793,643	1518,67
793,82	1520,31
793,996	1508,02
794,173	1532,19
794,35	1458,26
794,527	1506,38
794,704	1485,08
794,881	1431,84
795,057	1449,25
795,234	1418,53
795,411	1461,94
795,588	1487,13
795,765	1433,27
795,941	1437,57
796,118	1446,17
796,295	1535,05
796,471	1477,92
796,648	1463,99
796,825	1454,57
797,001	1435,93
797,178	1499,63
797,354	1454,16
797,531	1434,5
797,708	1398,46
797,884	1442,49
798,061	1382,48
798,237	1341,32
798,414	1353,4
798,59	1341,32
798,767	1333,74
798,943	1330,46
799,119	1372,86
799,296	1306,71
799,472	1324,32
799,649	1289,3
799,825	1317,56
800,001	1315,31
800,178	1272,91
800,354	1351,97
800,53	1321,04
800,707	1251,41
800,883	1267,39
801,059	1232,98
801,235	1334,15
801,411	1260,22
801,588	1213,11
801,764	1304,66
801,94	1191,61
802,116	1240,35
802,292	1238,51
802,468	1287,46
802,645	1271,48
802,821	1263,49
802,997	1236,05
803,173	1188,54
803,349	1222,53
803,525	1193,25
803,701	1237,69
803,877	1235,23
804,053	1223,35
804,229	1207,58
804,405	1277,42
804,581	1224,99
804,756	1235,23
804,932	1184,03
805,108	1223,15
805,284	1195,5
805,46	1193,86
805,636	1179,73
805,812	1138,98
805,987	1170,31
806,163	1181,58
806,339	1223,35
806,515	1125,05
806,69	1129,35
806,866	1179,53
807,042	1155,16
807,217	1136,32
807,393	1121,16
807,569	1085,12
807,744	1132,22
807,92	1151,68
808,096	1074,88
808,271	1100,48
808,447	1075,29
808,622	1041,08
808,798	1055,42
808,973	1046,82
809,149	1062,79
809,324	1036,58
809,5	1010,77
809,675	1027,98
809,851	1019,38
810,026	986,4
810,201	995,42
810,377	997,46
810,552	954,25
810,728	946,47
810,903	971,86
811,078	920,87
811,253	909,2
811,429	874,99
811,604	813,76
811,779	875,61
811,955	821,54
812,13	823,59
812,305	832,4
812,48	802,7
812,655	800,65
812,83	778,13
813,006	763,79
813,181	762,97
813,356	706,24
813,531	702,35
813,706	717,92
813,881	687,81
814,056	703,58
814,231	722,63
814,406	617,97
814,581	635,38
814,756	652,99
814,931	631,49
815,106	658,73
815,281	675,11
815,456	681,26
815,631	642,14
815,805	663,03
815,98	626,58
816,155	619,82
816,33	619,82
816,505	591,76
816,68	660,57
816,854	596,68
817,029	655,25
817,204	630,26
817,379	618,59
817,553	640,3
817,728	649,31
817,903	636
818,077	684,74
818,252	642,35
818,427	678,59
818,601	733,68
818,776	676,14
818,95	701,33
819,125	783,04
819,299	732,46
819,474	736,76
819,648	731,84
819,823	762,97
819,997	753,55
820,172	672,04
820,346	716,07
820,521	652,79
820,695	611,01
820,87	612,24
821,044	510,66
821,218	555,31
821,393	558,99
821,567	491,21
821,741	490,8
821,916	504,31
822,09	577,42
822,264	629,03
822,438	566,57
822,613	632,52
822,787	656,89
822,961	683,71
823,135	681,05
823,309	681,67
823,483	668,76
823,658	691,09
823,832	697,85
824,006	611,01
824,18	697,03
824,354	660,78
824,528	628,83
824,702	681,26
824,876	667,54
825,05	709,11
825,224	688,02
825,398	683,92
825,572	612,45
825,746	594,63
825,92	622,07
826,093	598,93
826,267	615,11
826,441	577,42
826,615	609,99
826,789	605,69
826,963	605,89
827,136	569,64
827,31	583,16
827,484	526,64
827,658	560,02
827,831	605,48
828,005	582,34
828,179	541,59
828,353	584,18
828,526	567,8
828,7	587,05
828,873	583,98
829,047	587,46
829,221	621,66
829,394	576,2
829,568	591,97
829,741	574,15
829,915	574,56
830,088	600,57
830,262	595,24
830,435	553,46
830,609	575,58
830,782	581,11
830,956	584,18
831,129	558,58
831,302	577,22
831,476	571,08
831,649	544,45
831,822	543,02
831,996	560,22
832,169	569,03
832,342	539,54
832,516	605,48
832,689	534,21
832,862	595,86
833,035	600,98
833,209	580,91
833,382	599,75
833,555	549,16
833,728	561,04
833,901	586,64
834,074	609,58
834,247	579,47
834,42	586,03
834,594	567,8
834,767	576,61
834,94	586,23
835,113	589,1
835,286	578,45
835,459	564,52
835,632	558,99
835,805	565,34
835,977	602,82
836,15	576,4
836,323	554,28
836,496	575,79
836,669	555,1
836,842	560,43
837,015	597,49
837,188	552,23
837,36	578,65
837,533	578,45
837,706	544,25
837,879	559,61
838,051	551,42
838,224	571,28
838,397	529,71
838,569	564,93
838,742	532,78
838,915	545,27
839,087	551,21
839,26	551,83
839,433	519,26
839,605	596,68
839,778	494,28
839,95	558,79
840,123	523,77
840,295	534,01
840,468	488,13
840,64	526,23
840,813	540,77
840,985	552,44
841,158	491,82
841,33	517,62
841,502	532,98
841,675	516,8
841,847	548,55
842,019	502,06
842,192	504,52
842,364	537,28
842,536	483,01
842,709	504,31
842,881	493,66
843,053	462,53
843,225	506,57
843,398	515,78
843,57	516,8
843,742	476,26
843,914	559,61
844,086	516,19
844,258	455,98
844,43	468,47
844,602	495,1
844,775	465,61
844,947	484,24
845,119	447,38
845,291	518,03
845,463	520,29
845,635	424,24
845,807	465,4
845,979	487,11
846,15	479,74
846,322	464,17
846,494	466,83
846,666	455,98
846,838	479,33
847,01	458,44
847,182	460,28
847,354	451,47
847,525	467,24
847,697	433,04
847,869	423,42
848,041	430,79
848,212	460,28
848,384	403,96
848,556	402,32
848,727	426,69
848,899	408,47
849,071	421,57
849,242	420,96
849,414	416,86
849,585	464,79
849,757	392,7
849,929	410,52
850,1	389,01
850,272	443,69
850,443	398,43
850,615	420,35
850,786	387,99
850,958	383,48
851,129	397,2
851,3	446,35
851,472	418,71
851,643	380
851,815	401,5
851,986	368,33
852,157	373,45
852,329	423,01
852,5	330,85
852,671	356,04
852,842	324,09
853,014	313,85
853,185	333,51
853,356	315,9
853,527	374,06
853,698	331,67
853,87	353,99
854,041	393,93
854,212	346,62
854,383	355,02
854,554	345,59
854,725	398,84
854,896	364,64
855,067	386,14
855,238	336,58
855,409	357,06
855,58	351,33
855,751	374,47
855,922	371,4
856,093	432,63
856,264	303,82
856,435	380,82
856,606	352,56
856,777	374,27
856,948	329,62
857,118	307,91
857,289	354,81
857,46	392,08
857,631	347,03
857,802	355,42
857,972	358,91
858,143	389,63
858,314	300,95
858,484	298,29
858,655	311,39
858,826	317,74
858,996	336,58
859,167	355,02
859,338	323,27
859,508	317,74
859,679	308,94
859,849	304,43
860,02	321,43
860,19	322,45
860,361	330,44
860,531	294,81
860,702	391,26
860,872	330,03
861,043	301,77
861,213	323,27
861,384	292,96
861,554	272,28
861,724	279,24
861,895	283,34
862,065	327,78
862,235	333,72
862,406	282,93
862,576	265,31
862,746	274,12
862,916	278,22
863,087	305,04
863,257	304,43
863,427	257,33
863,597	299,72
863,767	289,69
863,937	223,95
864,108	304,43
864,278	281,29
864,448	272,89
864,618	268,59
864,788	219,85
864,958	259,78
865,128	179,91
865,298	230,09
865,468	246,06
865,638	208,38
865,808	271,87
865,978	282,11
866,148	233,98
866,318	214,73
866,487	291,73
866,657	245,45
866,827	277,81
866,997	204,28
867,167	293,17
867,337	260,81
867,506	251,18
867,676	238,69
867,846	224,56
868,016	252,62
868,185	198,14
868,355	242,99
868,525	243,2
868,694	225,17
868,864	283,13
869,034	239,51
869,203	224,76
869,373	238,69
869,542	251,8
869,712	229,68
869,881	243,4
870,051	180,94
870,22	219,24
870,39	206,54
870,559	211,04
870,729	169,26
870,898	235
871,068	237,67
871,237	192,41
871,406	201,21
871,576	206,54
871,745	196,91
871,914	200,19
872,084	199,57
872,253	191,59
872,422	189,33
872,591	215,34
872,761	162,51
872,93	439,39
873,099	196,71
873,268	177,25
873,437	167,63
873,607	174,38
873,776	206,95
873,945	181,55
874,114	170,49
874,283	175,2
874,452	193,43
874,621	189,74
874,79	201,62
874,959	171,52
875,128	180,32
875,297	194,45
875,466	203,47
875,635	196,3
875,804	176,64
875,973	133,43
876,142	196,71
876,31	155,34
876,479	185,65
876,648	149,6
876,817	142,64
876,986	151,45
877,155	183,19
877,323	148,78
877,492	203,67
877,661	185,65
877,829	154,31
877,998	167,63
878,167	176,84
878,335	164,76
878,504	152,06
878,673	129,94
878,841	120,32
879,01	185,24
879,178	147,35
879,347	150,42
879,515	166,81
879,684	160,66
879,852	135,47
880,021	141,62
880,189	157,39
880,358	148,58
880,526	244,83
880,695	117,45
880,863	179,09
881,031	138,14
881,2	134,65
881,368	130,15
881,536	158,21
881,705	140,59
881,873	149,6
882,041	135,68
882,21	148,78
882,378	170,08
882,546	153,7
882,714	136,09
882,882	115,81
883,05	159,02
883,219	128,51
883,387	110,08
883,555	120,11
883,723	123,8
883,891	120,73
884,059	93,69
884,227	137,32
884,395	137,52
884,563	151,24
884,731	117,45
884,899	170,08
885,067	126,87
885,235	105,98
885,403	121,55
885,571	110,08
885,739	99,02
