Data from Subt18__4__10-51-11-933.txt Node

Date: Mon Feb 19 10:51:11 CET 2024
User: Versuch 234
Spectrometer: USB4F03543
Trigger mode: 4
Integration Time (sec): 3,000000E-2
Scans to average: 130
Electric dark correction enabled: true
Nonlinearity correction enabled: false
Boxcar width: 0
XAxis mode: Wavelengths
Number of Pixels in Spectrum: 3648
>>>>>Begin Spectral Data<<<<<
179,969	85,97
180,181	85,97
180,394	85,97
180,606	94,97
180,819	105,02
181,031	-18,26
181,243	-20,74
181,456	14,34
181,668	4,48
181,88	-25,2
182,093	2,55
182,305	33,98
182,518	32,83
182,73	-32,97
182,942	-4,69
183,155	9,9
183,367	3,78
183,579	-18,57
183,791	-36,62
184,004	3,74
184,216	2,6
184,428	-11,02
184,641	-9,37
184,853	23,82
185,065	12,2
185,277	3,36
185,49	-25,3
185,702	35,29
185,914	19,24
186,126	-14,44
186,338	0,49
186,551	-10,28
186,763	-15,51
186,975	26,61
187,187	-10,46
187,399	6,12
187,612	-31,43
187,824	1,25
188,036	-15,37
188,248	-10,74
188,46	8,12
188,672	-4,08
188,885	13,82
189,097	-36,86
189,309	20,88
189,521	-2,11
189,733	2,98
189,945	-2,55
190,157	-19,39
190,369	33,34
190,581	6,07
190,794	-14,63
191,006	23,73
191,218	3,15
191,43	-19,66
191,642	22,67
191,854	-2,49
192,066	-24,42
192,278	-0,45
192,49	15,41
192,702	19,69
192,914	20,01
193,126	26,56
193,338	-8,68
193,55	12,07
193,762	-1,67
193,974	40,19
194,186	24,53
194,398	19,17
194,61	-10,58
194,822	9,45
195,034	-13,14
195,246	-27,19
195,457	29,4
195,669	-28,76
195,881	-14,18
196,093	18,42
196,305	14,01
196,517	31,64
196,729	-6,17
196,941	20,88
197,153	-30,94
197,365	-15,42
197,576	37,45
197,788	49,15
198	-18,24
198,212	-32,86
198,424	-11,54
198,636	34,11
198,847	1,47
199,059	7,58
199,271	25,21
199,483	-13,99
199,695	5,11
199,906	-6,22
200,118	15,58
200,33	-1,42
200,542	-155,85
200,753	12,84
200,965	4,26
201,177	-19,53
201,389	-1,45
201,6	24,09
201,812	7,31
202,024	8,3
202,235	5,36
202,447	-48,06
202,659	-43,23
202,871	-9,78
203,082	4,45
203,294	14,2
203,506	-0,71
203,717	15,71
203,929	-8,63
204,141	18,15
204,352	-28,37
204,564	17,74
204,775	11,63
204,987	-40,18
205,199	-1,1
205,41	20,89
205,622	-32,56
205,833	39,31
206,045	-8,93
206,257	-13,64
206,468	30,83
206,68	24,61
206,891	12,2
207,103	42,4
207,314	24,45
207,526	-18,98
207,737	6,93
207,949	7,83
208,16	-0,66
208,372	1,8
208,583	-17,61
208,795	10,67
209,006	0,9
209,218	19,29
209,429	18,09
209,641	20,75
209,852	7,41
210,064	-10,21
210,275	16,61
210,487	-5,18
210,698	-35,43
210,909	-4,33
211,121	-14,36
211,332	8,49
211,544	-27,98
211,755	-24,45
211,966	-19,55
212,178	-0,42
212,389	-50,33
212,6	14,72
212,812	-20,67
213,023	7,19
213,234	-2,77
213,446	-17,44
213,657	14,83
213,868	-34,95
214,08	-17
214,291	-12,4
214,502	-7,34
214,714	19,19
214,925	1,26
215,136	13,36
215,347	23,18
215,559	32,3
215,77	3,5
215,981	-26,89
216,192	34,22
216,404	-2,47
216,615	-14,95
216,826	6,46
217,037	10,6
217,249	4,33
217,46	-28,46
217,671	-5,62
217,882	-2,03
218,093	-0,53
218,304	16,86
218,516	-2,96
218,727	11,3
218,938	6,38
219,149	-53,18
219,36	9,2
219,571	-15,26
219,782	-10,06
219,993	-40,69
220,205	36,99
220,416	-27,39
220,627	-15,78
220,838	-23,85
221,049	-62,98
221,26	-44,3
221,471	27,08
221,682	-10,9
221,893	-30,97
222,104	43,26
222,315	43,81
222,526	32,41
222,737	-9,99
222,948	-8,91
223,159	-6,31
223,37	-8,44
223,581	10,15
223,792	22,62
224,003	24,74
224,214	25,89
224,425	4,08
224,636	17,47
224,847	-17,03
225,058	6,78
225,269	16,84
225,48	14,4
225,691	25,05
225,902	-19,63
226,112	5,12
226,323	26,5
226,534	20,56
226,745	24,31
226,956	32,83
227,167	13,47
227,378	-22,37
227,589	19,3
227,799	-22,86
228,01	-10,14
228,221	29,68
228,432	16,64
228,643	17,27
228,853	19,96
229,064	29,71
229,275	-21,67
229,486	29,45
229,697	27,02
229,907	22,59
230,118	-7,45
230,329	24,64
230,54	20,72
230,75	-40,23
230,961	-14
231,172	6,18
231,383	27,07
231,593	13,42
231,804	-32,61
232,015	8,62
232,225	-6,87
232,436	0
232,647	-31,13
232,857	-2,45
233,068	8,08
233,279	-9,64
233,489	9,79
233,7	-9,54
233,91	20,64
234,121	-11,31
234,332	7,63
234,542	13,72
234,753	28,85
234,964	-1,9
235,174	9,93
235,385	-4,06
235,595	5,94
235,806	-25,36
236,016	23,68
236,227	3,26
236,437	22,62
236,648	-3,62
236,858	21,6
237,069	30,33
237,279	30,64
237,49	18,09
237,7	-2,2
237,911	-9,97
238,121	37,5
238,332	8,97
238,542	-0,33
238,753	13,17
238,963	7,82
239,174	6,4
239,384	8,81
239,595	21,63
239,805	21,95
240,015	25,81
240,226	5,85
240,436	-1,46
240,647	15,83
240,857	18,54
241,067	22,22
241,278	-58,51
241,488	22,45
241,698	-17,09
241,909	19,82
242,119	19,88
242,329	-5,37
242,54	-6,24
242,75	13,79
242,96	18,37
243,171	13,77
243,381	1,74
243,591	25,98
243,801	-4,68
244,012	-38,77
244,222	11
244,432	43,17
244,642	15,58
244,853	24,2
245,063	17,52
245,273	-7,05
245,483	5,42
245,694	4,26
245,904	8,89
246,114	-3,34
246,324	33,95
246,534	26,06
246,744	11,25
246,955	59,41
247,165	-22,45
247,375	-26,56
247,585	9,16
247,795	14,68
248,005	1,2
248,215	-23,2
248,425	9,8
248,636	-55,06
248,846	36,93
249,056	-4,94
249,266	16,76
249,476	7,11
249,686	3,89
249,896	27,26
250,106	-0,45
250,316	17,22
250,526	-36,97
250,736	31,24
250,946	-20,1
251,156	-28,05
251,366	14,89
251,576	3,44
251,786	-14,14
251,996	37,23
252,206	23,18
252,416	10,01
252,626	25,15
252,836	32,6
253,046	8,04
253,256	1,8
253,466	19,35
253,676	-3,31
253,885	-12,19
254,095	1,83
254,305	-2,75
254,515	-7,91
254,725	15,09
254,935	29,7
255,145	7,12
255,355	-13,25
255,564	14,86
255,774	8,49
255,984	-18,38
256,194	-11,84
256,404	29,48
256,614	-25,47
256,823	-13,94
257,033	35,26
257,243	-9,18
257,453	10,46
257,662	17,3
257,872	-3,7
258,082	2,76
258,292	30,94
258,501	-53,5
258,711	-70,32
258,921	-39,02
259,131	37,12
259,34	17,9
259,55	-2,64
259,76	12,98
259,969	0,52
260,179	25,76
260,389	-9,4
260,598	-25,5
260,808	-18,38
261,018	12,98
261,227	-24,42
261,437	25,96
261,647	-18,08
261,856	21,14
262,066	-6,99
262,275	-30,81
262,485	0,63
262,694	-12,14
262,904	3,47
263,114	-15,69
263,323	15,69
263,533	25,51
263,742	21,55
263,952	16,39
264,161	19
264,371	14,32
264,58	12,4
264,79	12,98
264,999	18,02
265,209	-4,74
265,418	1,64
265,628	7,33
265,837	-18
266,047	0,84
266,256	-39,89
266,466	34,96
266,675	47,34
266,884	17,55
267,094	14,86
267,303	-40,85
267,513	8,35
267,722	-9,32
267,931	-13,39
268,141	24,78
268,35	6,67
268,559	-8,84
268,769	13,38
268,978	27,13
269,187	-13,7
269,397	24,7
269,606	37,86
269,815	13,82
270,025	-9,97
270,234	-31,93
270,443	21,68
270,653	-2,69
270,862	-7,01
271,071	16,76
271,28	13,65
271,49	19,49
271,699	29,27
271,908	-5,75
272,117	-6,54
272,327	19,66
272,536	-0,33
272,745	9,5
272,954	22,89
273,163	-14,84
273,372	-34,58
273,582	17,93
273,791	8,6
274	30,75
274,209	24,22
274,418	-18,93
274,627	-43,68
274,836	12,15
275,046	-8,9
275,255	1,36
275,464	5,69
275,673	23,21
275,882	-16,98
276,091	8,46
276,3	-0,6
276,509	2,96
276,718	1,78
276,927	12,92
277,136	-5,67
277,345	1,42
277,554	-14,18
277,763	-21,8
277,972	-6,69
278,181	-5,23
278,39	25,41
278,599	-16,54
278,808	16,8
279,017	-11,83
279,226	38,05
279,435	4,32
279,644	-8,96
279,853	-7,45
280,062	-53,62
280,271	-0,83
280,48	23,92
280,688	9,8
280,897	-26,45
281,106	21,93
281,315	27,04
281,524	8,51
281,733	1,69
281,942	15,02
282,151	-13,56
282,359	-11,83
282,568	33,1
282,777	0,52
282,986	21,96
283,195	3,48
283,403	-9,13
283,612	7,72
283,821	21,99
284,03	24,96
284,238	30,58
284,447	3,33
284,656	4,54
284,865	-9,95
285,073	23,11
285,282	4
285,491	22,67
285,699	10,38
285,908	1,51
286,117	28,74
286,325	-3,64
286,534	-30,26
286,743	4,3
286,951	-1,89
287,16	-8,95
287,369	25,51
287,577	-19,99
287,786	33,68
287,995	22,74
288,203	2,89
288,412	4,9
288,62	-7,83
288,829	25,21
289,037	43,42
289,246	1,8
289,455	6,13
289,663	-20,49
289,872	-23,44
290,08	-24,15
290,289	-26,53
290,497	28,22
290,706	-17,97
290,914	25,21
291,123	32,53
291,331	16,2
291,54	-28,42
291,748	-33,74
291,957	-6,47
292,165	19,82
292,373	34,12
292,582	2,59
292,79	-1,57
292,999	3,36
293,207	-6,57
293,415	3,93
293,624	58,92
293,832	14,17
294,041	-12,4
294,249	8,93
294,457	24,85
294,666	11,5
294,874	44,99
295,082	-20,51
295,291	-11,51
295,499	3,18
295,707	12,37
295,915	7,03
296,124	-24,95
296,332	6,48
296,54	11,01
296,749	-27,22
296,957	-21,3
297,165	11,27
297,373	10,6
297,581	1,92
297,79	4,79
297,998	19
298,206	36,94
298,414	16,95
298,622	-25,85
298,831	-18,15
299,039	30,2
299,247	-5,92
299,455	11,38
299,663	-27,16
299,871	24,8
300,08	-9,17
300,288	-3,54
300,496	22,83
300,704	-0,31
300,912	6,46
301,12	12,05
301,328	9,47
301,536	5,91
301,744	17,49
301,952	-4,41
302,16	33,49
302,368	-4,46
302,576	13,05
302,784	-3,79
302,992	11,6
303,2	15,33
303,408	7,28
303,616	19,57
303,824	-10,49
304,032	-8,55
304,24	-22,23
304,448	6,84
304,656	21,81
304,864	-19,93
305,072	-15,42
305,28	2,98
305,488	12,98
305,696	-25,41
305,904	5,48
306,111	44,35
306,319	30,82
306,527	-21,39
306,735	12,76
306,943	-21,38
307,151	31,32
307,359	25,76
307,566	-25,49
307,774	-37
307,982	-15,67
308,19	26,94
308,398	16,95
308,605	13,63
308,813	18,94
309,021	18,73
309,229	-21,49
309,436	21,51
309,644	-27,85
309,852	-9,26
310,06	-35,21
310,267	4,56
310,475	-3,07
310,683	-21,14
310,89	-22,4
311,098	-27,17
311,306	22,74
311,513	10,15
311,721	1,17
311,929	-4,19
312,136	23,52
312,344	-15,99
312,552	-28,1
312,759	27,62
312,967	-8,77
313,174	-17,8
313,382	-11,62
313,589	-11,72
313,797	-33,73
314,005	9,74
314,212	-3,16
314,42	37,23
314,627	18,61
314,835	3,86
315,042	3,77
315,25	37,34
315,457	16,35
315,665	51,83
315,872	-11,17
316,08	-12,99
316,287	23,05
316,495	-147,69
316,702	26,55
316,909	22,34
317,117	-38,11
317,324	2,18
317,532	-18,78
317,739	37,67
317,946	4,52
318,154	1,03
318,361	34,83
318,569	3,88
318,776	25,37
318,983	45,88
319,191	15,5
319,398	5,52
319,605	18,8
319,813	-25,88
320,02	52,3
320,227	-8,58
320,434	-25,53
320,642	3,23
320,849	6,82
321,056	-5,12
321,264	-4,66
321,471	6,86
321,678	-25,96
321,885	26
322,092	-26,21
322,3	-4,24
322,507	22,74
322,714	-0,61
322,921	11,61
323,128	24,72
323,336	4,16
323,543	-20,27
323,75	-7,83
323,957	-7,92
324,164	-11,66
324,371	-0,94
324,578	50,05
324,786	-31,3
324,993	14,86
325,2	4,89
325,407	53,9
325,614	-5,65
325,821	-39,82
326,028	-57,92
326,235	-10,43
326,442	-24,51
326,649	34,27
326,856	-8,74
327,063	45,01
327,27	-9,06
327,477	30,33
327,684	37,57
327,891	39,97
328,098	-18,26
328,305	-9,86
328,512	26,52
328,719	-0,33
328,926	15,13
329,133	144,98
329,34	275,27
329,546	642,51
329,753	984,54
329,96	1203,88
330,167	1126,86
330,374	1028,02
330,581	704,3
330,788	347,4
330,995	143,47
331,201	69,24
331,408	25,93
331,615	26,26
331,822	25,79
332,029	20,89
332,235	-2,44
332,442	3,53
332,649	14,29
332,856	18,58
333,062	2,62
333,269	3,58
333,476	3,63
333,683	5,61
333,889	-14,1
334,096	5,82
334,303	-14,82
334,509	11,55
334,716	1,51
334,923	-3,83
335,129	18,12
335,336	-16,92
335,543	10,67
335,749	10,68
335,956	-23,14
336,163	41,32
336,369	-25,46
336,576	0,13
336,782	-10,93
336,989	24,78
337,196	4,38
337,402	29,38
337,609	9,72
337,815	19,92
338,022	-24,76
338,228	-21,69
338,435	-66,08
338,641	-35,63
338,848	-27,03
339,054	-20,02
339,261	24,91
339,467	30,38
339,674	-0,64
339,88	1,74
340,087	-17,69
340,293	12,12
340,5	15,87
340,706	-11,1
340,912	18,8
341,119	36,54
341,325	24,06
341,532	0,05
341,738	29,89
341,944	8,76
342,151	19,73
342,357	16,7
342,563	0,63
342,77	5,03
342,976	12,97
343,182	-50,5
343,389	19,95
343,595	17,25
343,801	21,98
344,007	-13,45
344,214	21,41
344,42	14,34
344,626	5,96
344,832	10,48
345,039	-17,75
345,245	13,72
345,451	38,65
345,657	9,3
345,864	20,61
346,07	20,28
346,276	4,74
346,482	-13,2
346,688	-5,24
346,894	38,63
347,1	8,16
347,307	-0,36
347,513	-19,82
347,719	-7,7
347,925	-22,48
348,131	35,79
348,337	-42,94
348,543	12,04
348,749	6,3
348,955	-41,57
349,161	3,52
349,367	-4,87
349,573	-9,72
349,779	-13,28
349,985	-3,32
350,191	-17,64
350,397	4,05
350,603	-16,1
350,809	21,11
351,015	-36,67
351,221	2
351,427	-12,47
351,633	-17,94
351,839	-21,36
352,045	-20,26
352,251	-37,6
352,457	-8,32
352,663	-26,78
352,869	3,45
353,075	-17,81
353,28	21,25
353,486	-10,24
353,692	-18,84
353,898	-9,99
354,104	20,55
354,31	-5,61
354,515	45,44
354,721	-41,49
354,927	-15,36
355,133	-27,11
355,339	17,44
355,544	-33,05
355,75	12,95
355,956	-13,64
356,162	2,59
356,367	16,01
356,573	9,03
356,779	6,43
356,984	-41,13
357,19	-38,92
357,396	-4,08
357,602	-60,19
357,807	4,95
358,013	-0,11
358,218	-7,73
358,424	8,43
358,63	20,92
358,835	10,32
359,041	2,62
359,247	-1,67
359,452	15,49
359,658	16,72
359,863	-14,71
360,069	-12,63
360,274	-24,38
360,48	-33,76
360,685	-8,76
360,891	-30,54
361,097	-10,43
361,302	4,7
361,508	-33,66
361,713	1,45
361,918	-31,85
362,124	10,94
362,329	0,57
362,535	-31,6
362,74	20,07
362,946	-26,76
363,151	-14,73
363,357	-5,23
363,562	16,37
363,767	31,95
363,973	-38,39
364,178	7,01
364,383	23,92
364,589	-6,33
364,794	15,44
365	-37,59
365,205	-16,26
365,41	18,21
365,615	-6,39
365,821	8,73
366,026	-40,22
366,231	-16,3
366,437	-4
366,642	-1,87
366,847	-45,1
367,052	21,82
367,258	27,49
367,463	15
367,668	7,83
367,873	-54,82
368,078	-42,19
368,284	20,47
368,489	16,28
368,694	-25,44
368,899	-29,16
369,104	-10,74
369,309	-28,61
369,515	16,24
369,72	-52,77
369,925	8,64
370,13	-26,53
370,335	-45,32
370,54	-10,35
370,745	-16,08
370,95	-17,22
371,155	-44,36
371,36	-13,18
371,565	-22,53
371,77	-2,71
371,975	15,39
372,18	-39,98
372,385	-16,3
372,59	-35,52
372,795	-3,97
373	-19,15
373,205	-15,37
373,41	-18,59
373,615	2,16
373,82	25,78
374,025	-3,01
374,23	33,18
374,435	-36,12
374,64	-17,8
374,845	-24,05
375,05	-8,63
375,254	-17,28
375,459	2,21
375,664	7,61
375,869	-3,89
376,074	-11,28
376,279	7,14
376,483	15,43
376,688	5,77
376,893	-39,03
377,098	14,02
377,303	-21,23
377,507	-5,12
377,712	-73,66
377,917	-22,78
378,122	-25,83
378,326	3,63
378,531	13,02
378,736	-36,92
378,94	13,58
379,145	-7,21
379,35	-39,07
379,554	-1,29
379,759	24,81
379,964	-21,64
380,168	11,72
380,373	-32,39
380,578	-25,36
380,782	-80,06
380,987	-11,97
381,191	-9,67
381,396	-15,09
381,601	-21,34
381,805	-15,8
382,01	-95,83
382,214	-13,42
382,419	0,16
382,623	-20,21
382,828	-7,51
383,032	-13,2
383,237	43,26
383,441	3,93
383,646	-42,89
383,85	-0,5
384,055	-12,02
384,259	-1,32
384,464	22,28
384,668	4,29
384,872	-4,77
385,077	18,21
385,281	-2,69
385,486	-2,99
385,69	3,59
385,894	-37,49
386,099	-33,32
386,303	-26,94
386,507	-31,5
386,712	-70,09
386,916	-15,94
387,12	-2,01
387,325	-43,63
387,529	-26,43
387,733	-24,42
387,937	-5,05
388,142	5,96
388,346	20,97
388,55	-43,71
388,754	-14,88
388,959	-2,64
389,163	-0,23
389,367	-4,46
389,571	-14,41
389,775	-56,57
389,98	-30,62
390,184	4,04
390,388	-27,31
390,592	-10,76
390,796	-24,1
391	-13,28
391,204	8,08
391,409	-0,14
391,613	-3,86
391,817	12,56
392,021	-55,97
392,225	-3,65
392,429	8,75
392,633	13,85
392,837	7,28
393,041	-4,63
393,245	0,44
393,449	2
393,653	-12,36
393,857	-45,86
394,061	-31,95
394,265	-33,58
394,469	-23,82
394,673	-29,76
394,877	-29,31
395,081	-21,63
395,285	-57,36
395,489	-19,88
395,693	-29,76
395,896	-5,4
396,1	-32,26
396,304	-41,59
396,508	0,62
396,712	-16,87
396,916	-13,21
397,12	-28,04
397,323	-58,98
397,527	-31,27
397,731	-73,72
397,935	-47,34
398,139	-6,58
398,342	-46,36
398,546	-43,13
398,75	-27,68
398,954	-31,38
399,157	-58,44
399,361	-60,08
399,565	-6,58
399,769	-83,87
399,972	-60,82
400,176	-63,2
400,38	-43,6
400,583	-46,28
400,787	-46,39
400,991	-52,71
401,194	-34,07
401,398	-69,91
401,601	-50,46
401,805	-54,96
402,009	-63,52
402,212	-49,84
402,416	-115,49
402,619	-29,66
402,823	-72,86
403,026	-27,27
403,23	-13,89
403,433	-67,53
403,637	-38,04
403,841	-50,69
404,044	-21,74
404,247	-38,09
404,451	-59,1
404,654	-70,76
404,858	-45,46
405,061	-42
405,265	-29,91
405,468	-51,72
405,672	-48,27
405,875	-55,88
406,078	-37,1
406,282	-31,06
406,485	-30,72
406,689	-73,98
406,892	-91,35
407,095	-26,48
407,299	-60,22
407,502	-78,4
407,705	-41,57
407,909	-54,57
408,112	-66,51
408,315	-59,23
408,518	-98,8
408,722	-60,55
408,925	-54,13
409,128	-76,7
409,331	-54,76
409,535	-100,13
409,738	-78,97
409,941	-102,93
410,144	-55,32
410,347	-101,75
410,551	-95,29
410,754	-96,28
410,957	-61,58
411,16	-55,94
411,363	-81,87
411,566	-71,28
411,769	-67,36
411,973	-59,18
412,176	-97,45
412,379	-97,61
412,582	-96,35
412,785	-72,65
412,988	-49,12
413,191	-56,55
413,394	-69,03
413,597	-57,2
413,8	-31,35
414,003	-109,04
414,206	-33,02
414,409	-75,06
414,612	-46,44
414,815	-42,36
415,018	-21,97
415,221	-10,43
415,424	-54,71
415,627	-26,43
415,83	-44,27
416,033	-91,01
416,235	-77,6
416,438	-82,03
416,641	-123,98
416,844	-77,08
417,047	-49,7
417,25	-47,7
417,453	-62,93
417,655	-39,21
417,858	-61,67
418,061	-12,49
418,264	-43,93
418,467	2,92
418,669	-26,86
418,872	-57,92
419,075	12,32
419,278	-18,59
419,48	-46,68
419,683	-21,63
419,886	-6,98
420,089	-43,97
420,291	-90,22
420,494	-45,01
420,697	-73,47
420,899	-113,74
421,102	-50,17
421,305	-84,03
421,507	-80,62
421,71	-89,19
421,912	-69,99
422,115	-45,86
422,318	-66,4
422,52	-74,89
422,723	-59,1
422,925	-74,46
423,128	-98,63
423,33	-39,65
423,533	-68,42
423,735	-66,23
423,938	-61,86
424,14	-64,78
424,343	-127,57
424,545	-78,75
424,748	-87,41
424,95	-81,57
425,153	-43,3
425,355	-41,24
425,558	-54,87
425,76	-56,69
425,962	-45,42
426,165	-46,14
426,367	-24,19
426,57	-51,43
426,772	-35,84
426,974	-79,74
427,177	-50,27
427,379	-75,95
427,581	-98,69
427,784	-63,41
427,986	-42,09
428,188	-83,38
428,39	-37,1
428,593	-58,21
428,795	-96,08
428,997	-76,53
429,2	-29,91
429,402	-58,57
429,604	-21,06
429,806	-70,2
430,008	-84,28
430,211	-58,88
430,413	-55,59
430,615	-61,75
430,817	-70,49
431,019	-55,83
431,221	-85,46
431,423	-47,54
431,626	-79,71
431,828	-79,16
432,03	-46,86
432,232	-67,85
432,434	-75,72
432,636	-85,16
432,838	-35,81
433,04	-78,18
433,242	-62,87
433,444	-85,68
433,646	-80,42
433,848	-53,7
434,05	-84,59
434,252	-71,2
434,454	-78,29
434,656	-74,83
434,858	-88
435,06	-64,97
435,262	-117,93
435,464	-78,99
435,666	-128,77
435,868	-136,34
436,07	-109,17
436,271	-92,79
436,473	-86,75
436,675	-110,46
436,877	-81,16
437,079	-91,16
437,281	-47,49
437,482	-100,95
437,684	-44,22
437,886	-63,66
438,088	-90,86
438,29	-68,21
438,491	-82,58
438,693	-74,62
438,895	-98,03
439,097	-123,65
439,298	-84,75
439,5	-72,16
439,702	-60,98
439,903	-78,66
440,105	-92,86
440,307	-125,43
440,508	-105,07
440,71	-67,69
440,912	-127,51
441,113	-67,15
441,315	-112,79
441,517	-107,53
441,718	-110,46
441,92	-110,29
442,121	-121,14
442,323	-98,39
442,524	-82,33
442,726	-100,1
442,928	-87,92
443,129	-99,7
443,331	-117,77
443,532	-118,17
443,734	-93,31
443,935	-107,89
444,136	-87,11
444,338	-113,19
444,539	-130,8
444,741	-106,54
444,942	-100,73
445,144	-127,66
445,345	-127,08
445,546	-91,48
445,748	-116,51
445,949	-99,15
446,151	-77
446,352	-87,97
446,553	-155,39
446,755	-112,34
446,956	-111,03
447,157	-111,22
447,359	-111,09
447,56	-111,9
447,761	-104,51
447,962	-103,26
448,164	-99,94
448,365	-98,58
448,566	-125,92
448,767	-60,81
448,969	-131,52
449,17	-116,23
449,371	-96,16
449,572	-128,07
449,773	-97,92
449,974	-120,92
450,176	-135,31
450,377	-135,51
450,578	-110,57
450,779	-114,26
450,98	-63,96
451,181	-108,97
451,382	-110,3
451,583	-119,27
451,784	-99,39
451,986	-99,09
452,187	-108,79
452,388	-104,08
452,589	-117,24
452,79	-111,41
452,991	-87,18
453,192	-131,92
453,393	-97,43
453,594	-124,59
453,795	-77,58
453,995	-56,02
454,196	-85,38
454,397	-74,24
454,598	-33,14
454,799	-44,82
455	-136,61
455,201	-77,41
455,402	-162,92
455,603	-107,39
455,804	-108,93
456,004	-93,05
456,205	-111,09
456,406	-95,5
456,607	-121,19
456,808	-161,87
457,008	-86,26
457,209	-66,29
457,41	-111,19
457,611	-113,31
457,811	-180,64
458,012	-117,87
458,213	-87,24
458,414	-124,97
458,614	-105,18
458,815	-96,43
459,016	-165,76
459,216	-138,98
459,417	-105,5
459,618	-133,62
459,818	-144,35
460,019	-97,8
460,22	-83,29
460,42	-133,13
460,621	-135,38
460,821	-138,53
461,022	-158,13
461,223	-145,1
461,423	-103,92
461,624	-122,95
461,824	-86,93
462,025	-104,51
462,225	-98,27
462,426	-129,43
462,626	-103,77
462,827	-118,21
463,027	-133,6
463,228	-121,76
463,428	-128,55
463,628	-137,72
463,829	-160,54
464,029	-99,54
464,23	-106,32
464,43	-130,72
464,63	-85,76
464,831	-72,83
465,031	-116,34
465,231	-71,77
465,432	-94,9
465,632	-154,82
465,832	-48,79
466,033	-77,27
466,233	-82,89
466,433	-143,97
466,634	-112,89
466,834	-146,27
467,034	-107,11
467,234	-159,55
467,435	-126,23
467,635	-137,73
467,835	-103,29
468,035	-134,85
468,235	-128,89
468,436	-147,34
468,636	-136,36
468,836	-88,47
469,036	-144,11
469,236	-133,81
469,436	-116,76
469,636	-179,18
469,836	-126,06
470,037	-114,2
470,237	-133,38
470,437	-195,29
470,637	-121
470,837	-129,76
471,037	-156,78
471,237	-133,19
471,437	-167,73
471,637	-146,06
471,837	-168,83
472,037	-137,4
472,237	-173,73
472,437	-145,42
472,637	-198,4
472,837	-138,8
473,036	-138,6
473,236	-202,53
473,436	-144,17
473,636	-144,71
473,836	-115,28
474,036	-150,92
474,236	-103,91
474,436	-145,47
474,635	-140,2
474,835	-158,2
475,035	-192
475,235	-161,33
475,435	-188,05
475,634	-153,37
475,834	-174,22
476,034	-183,81
476,234	-148,36
476,433	-161,65
476,633	-231,45
476,833	-194,43
477,033	-178,22
477,232	-142,05
477,432	-192,59
477,632	-255,96
477,831	-191,32
478,031	-174,47
478,231	-195,67
478,43	-185,73
478,63	-200,53
478,829	-134,03
479,029	-189,01
479,229	-181,42
479,428	-176,19
479,628	-202,16
479,827	-203,36
480,027	-182,83
480,226	-253,85
480,426	-209,5
480,625	-225,16
480,825	-211,11
481,024	-219,22
481,224	-251,44
481,423	-198,68
481,623	-261,85
481,822	-183,18
482,021	-240,65
482,221	-220,69
482,42	-252,07
482,62	-230,11
482,819	-208,84
483,018	-224,57
483,218	-195,53
483,417	-246,82
483,616	-198,93
483,816	-259,38
484,015	-242,24
484,214	-238,68
484,414	-231,23
484,613	-263,15
484,812	-201,66
485,011	-157,8
485,211	-228,38
485,41	-239,89
485,609	-179,64
485,808	-230,69
486,008	-194,1
486,207	-211,33
486,406	-234,65
486,605	-209,8
486,804	-221,82
487,003	-219,18
487,203	-206,65
487,402	-221,11
487,601	-226,46
487,8	-248,09
487,999	-215,1
488,198	-230,63
488,397	-228,77
488,596	-245,8
488,795	-242,27
488,994	-267,32
489,193	-227,83
489,392	-279,12
489,591	-252,45
489,79	-234,79
489,989	-236,87
490,188	-254,36
490,387	-300,69
490,586	-229,78
490,785	-251,02
490,984	-256,25
491,183	-252,57
491,382	-251,06
491,581	-229,39
491,779	-233,02
491,978	-186,91
492,177	-231,48
492,376	-215,96
492,575	-196,95
492,774	-193,69
492,972	-196,33
493,171	-239,12
493,37	-234,8
493,569	-308,44
493,768	-294,02
493,966	-240,26
494,165	-281,56
494,364	-306,06
494,563	-271,5
494,761	-272
494,96	-283,22
495,159	-266,04
495,357	-231,98
495,556	-271,09
495,755	-229,81
495,953	-239,2
496,152	-132
496,35	-10,65
496,549	146,9
496,748	338,06
496,946	478,22
497,145	472,11
497,343	440,55
497,542	364,92
497,74	129,2
497,939	-32,39
498,137	-110,29
498,336	-175,76
498,534	-219,52
498,733	-216,64
498,931	-204,01
499,13	-220,34
499,328	-235,23
499,527	-290,27
499,725	-207,83
499,924	-219,71
500,122	-215,27
500,32	-260,34
500,519	-275,5
500,717	-248,83
500,915	-206,24
501,114	-232,58
501,312	-261,52
501,51	-208,61
501,709	-251,27
501,907	-255,8
502,105	-215,32
502,304	-252,51
502,502	-248,53
502,7	-242,54
502,898	-238,79
503,097	-238,63
503,295	-221,26
503,493	-267,04
503,691	-273,09
503,889	-225,45
504,088	-200,1
504,286	-263,79
504,484	-262,78
504,682	-264,88
504,88	-268,11
505,078	-265,93
505,276	-263,57
505,474	-292,62
505,672	-244,57
505,871	-274,55
506,069	-295,68
506,267	-236,02
506,465	-252,31
506,663	-227,24
506,861	-244
507,059	-278,38
507,257	-263,74
507,455	-237,23
507,653	-264,09
507,851	-260,61
508,049	-226,83
508,246	-266,67
508,444	-284,38
508,642	-241,26
508,84	-260,25
509,038	-246,12
509,236	-278,13
509,434	-241,74
509,632	-300,69
509,829	-269,27
510,027	-234,54
510,225	-272,53
510,423	-238,1
510,621	-242,79
510,818	-287,33
511,016	-255,52
511,214	-261,13
511,412	-303,11
511,609	-232
511,807	-257,21
512,005	-244,49
512,203	-280,87
512,4	-244,19
512,598	-228,5
512,796	-213,32
512,993	-218,26
513,191	-178,39
513,389	-195,2
513,586	-166,29
513,784	-83,32
513,981	-100,73
514,179	-75,05
514,377	-84,93
514,574	-155,63
514,772	-145,59
514,969	-194,89
515,167	-180,27
515,364	-247,83
515,562	-208,91
515,759	-265,11
515,957	-205,66
516,154	-209,17
516,352	-282,81
516,549	-254,32
516,746	-217,03
516,944	-245,25
517,141	-238,59
517,339	-214,04
517,536	-234,58
517,733	-239,64
517,931	-209,44
518,128	-237,25
518,325	-252,94
518,523	-257,76
518,72	-266,93
518,917	-286,43
519,115	-266,85
519,312	-265,65
519,509	-295,08
519,707	-286,07
519,904	-238,84
520,101	-274,76
520,298	-272,47
520,495	-283,37
520,693	-223,79
520,89	-296,42
521,087	-256,12
521,284	-355,97
521,481	-249,83
521,678	-278,76
521,876	-257,76
522,073	-286,57
522,27	-279,84
522,467	-250,67
522,664	-268,96
522,861	-262,8
523,058	-290,4
523,255	-258,18
523,452	-276,11
523,649	-265,48
523,846	-254,91
524,043	-275,46
524,24	-292,86
524,437	-268
524,634	-302,78
524,831	-264,94
525,028	-271,59
525,225	-220,88
525,422	-260,85
525,619	-248,32
525,816	-245,25
526,013	-285,5
526,209	-299,8
526,406	-244,18
526,603	-255,55
526,8	-230,58
526,997	-268,38
527,194	-266,42
527,39	-281,92
527,587	-249,12
527,784	-266,08
527,981	-268,9
528,177	-273,92
528,374	-273,68
528,571	-319,91
528,768	-242,81
528,964	-257,95
529,161	-251,65
529,358	-289,77
529,554	-297,35
529,751	-255,71
529,948	-257,9
530,144	-279,34
530,341	-240,18
530,537	-274,19
530,734	-282,74
530,931	-288,46
531,127	-261,32
531,324	-259,44
531,52	-249,76
531,717	-231,56
531,913	-292,97
532,11	-234,38
532,306	-261,76
532,503	-217,03
532,699	-261,84
532,896	-332,07
533,092	-272,9
533,289	-228,13
533,485	-640,7
533,682	-279,2
533,878	-298,84
534,074	-273,94
534,271	-317,95
534,467	-327,25
534,664	-287,04
534,86	-258,28
535,056	-274,09
535,253	-268,12
535,449	-256,51
535,645	-270,44
535,841	-242,4
536,038	-271,27
536,234	-255,91
536,43	-289,14
536,626	-289,39
536,823	-262,61
537,019	-263,9
537,215	-264,36
537,411	-297,79
537,607	-269,23
537,804	-273,13
538	-262,11
538,196	-285,3
538,392	-238,33
538,588	-304,37
538,784	-225,53
538,98	-226,27
539,176	-250,84
539,373	-257,99
539,569	-259,32
539,765	-223,95
539,961	-256,07
540,157	-280,63
540,353	-218,56
540,549	-293,57
540,745	-298,78
540,941	-232,46
541,137	-241,03
541,333	-254,5
541,528	-261,05
541,724	-243,49
541,92	-261,93
542,116	-240,52
542,312	-213,71
542,508	-252,84
542,704	-257,46
542,9	-263,3
543,096	-242,98
543,291	-265,7
543,487	-249,96
543,683	-271,72
543,879	-286,35
544,075	-284,38
544,27	-247,28
544,466	-232,44
544,662	-253,38
544,858	-236,38
545,053	-267,21
545,249	-278,41
545,445	-254,02
545,64	-238,62
545,836	-236,59
546,032	-245,12
546,227	-226,27
546,423	-264,59
546,619	-220,61
546,814	-231,17
547,01	-200,9
547,205	-224,69
547,401	-220,36
547,597	-268,72
547,792	-221,79
547,988	-272,96
548,183	-217,22
548,379	-270,25
548,574	-246,78
548,77	-225,38
548,965	-246,07
549,161	-193,75
549,356	-215,24
549,552	-269,15
549,747	-250,34
549,942	-258,31
550,138	-217,07
550,333	-219,35
550,529	-233,42
550,724	-199,06
550,919	-234,87
551,115	-232,24
551,31	-243,3
551,505	-227,65
551,701	-231,65
551,896	-197,01
552,091	-243,56
552,287	-239,7
552,482	-224,86
552,677	-221,11
552,872	-183,18
553,067	-233,1
553,263	-236,03
553,458	-210,31
553,653	-235,51
553,848	-220,12
554,043	-222,66
554,239	-195,66
554,434	-213,16
554,629	-201,85
554,824	-201,96
555,019	-217,66
555,214	-197,26
555,409	-203,12
555,604	-217,79
555,799	-197,26
555,994	-205,61
556,189	-182,5
556,384	-215,27
556,579	-209,44
556,774	-182,99
556,969	-181,76
557,164	-175,97
557,359	-216,69
557,554	-198,74
557,749	-150,84
557,944	-183,15
558,139	-184
558,334	-144,08
558,529	-191,1
558,724	-173,79
558,918	-187,78
559,113	-168,92
559,308	-193,17
559,503	-144,41
559,698	-111,67
559,893	-138,16
560,087	-158,12
560,282	-117
560,477	-211,84
560,672	-150,22
560,866	-138,68
561,061	-178,55
561,256	-154,82
561,45	-170,17
561,645	-156,93
561,84	-155,85
562,034	-160,05
562,229	-156,71
562,424	-138,28
562,618	-159,57
562,813	-134,79
563,008	-96,55
563,202	-119,91
563,397	-91,12
563,591	-99,88
563,786	-89,82
563,98	-48,9
564,175	-77,1
564,369	-38,14
564,564	-87,43
564,758	-62,62
564,953	-11,28
565,147	-21,28
565,342	-12,08
565,536	-8,9
565,731	-24,46
565,925	86,55
566,119	398,99
566,314	945,61
566,508	1994,05
566,703	3364,45
566,897	4948,48
567,091	6612,15
567,286	7691,35
567,48	7648,72
567,674	7069,2
567,868	6087,46
568,063	4356,79
568,257	2906,21
568,451	1989,21
568,646	1313,19
568,84	822,12
569,034	506,39
569,228	303,17
569,422	174,91
569,616	101,79
569,811	104,18
570,005	23,18
570,199	15,66
570,393	36,76
570,587	-35,77
570,781	-14,95
570,975	-33,27
571,169	-43,08
571,364	-90,47
571,558	-65,75
571,752	-49,7
571,946	-57,72
572,14	-49,7
572,334	-31,46
572,528	-28,2
572,722	-59,15
572,916	-8,65
573,109	-53,76
573,303	-19,58
573,497	-29,06
573,691	-49,09
573,885	-31,49
574,079	-14,73
574,273	-14,92
574,467	-12,08
574,661	-2,2
574,854	-9,76
575,048	-3,45
575,242	24,42
575,436	8,38
575,63	40,58
575,823	6,51
576,017	30,14
576,211	40,71
576,405	31,35
576,598	34,42
576,792	30,23
576,986	40,17
577,18	43,69
577,373	81,78
577,567	68,8
577,761	65,9
577,954	91,36
578,148	88,99
578,341	85,72
578,535	66,15
578,729	96,16
578,922	80,88
579,116	88,27
579,309	102,31
579,503	149,49
579,696	138
579,89	108,81
580,083	173,37
580,277	233,64
580,47	314,93
580,664	533,75
580,857	826,31
581,051	1012,86
581,244	1295,61
581,437	1513,28
581,631	1527,13
581,824	1467,81
582,018	1485,54
582,211	1433,91
582,404	1224,34
582,598	1040,86
582,791	952,58
582,984	902,98
583,178	745,95
583,371	741,52
583,564	677,09
583,757	718,67
583,951	724,92
584,144	798,93
584,337	818,42
584,53	919,21
584,723	1032,82
584,917	1106,5
585,11	1263,9
585,303	1406,93
585,496	1615,19
585,689	1956,54
585,882	2385,85
586,075	3211,49
586,268	5087,46
586,462	63045,51
586,655	62803,88
586,848	64256,63
587,041	64299,64
587,234	64285,3
587,427	64237,17
587,62	64294,52
587,813	64296,97
588,006	64261,13
588,199	64274,45
588,392	64274,45
588,585	64258,27
588,777	64235,74
588,97	64254,99
589,163	64227,55
589,356	64228,57
589,549	64247,41
589,742	64304,55
589,935	64339,78
590,128	64277,11
590,32	64246,39
590,513	64276,08
590,706	64304,76
590,899	64293,29
591,092	64240,86
591,284	64279,16
591,477	64317,04
591,67	64264,21
591,863	64275,47
592,055	64360,67
592,248	64225,91
592,441	64265,64
592,633	64303,94
592,826	64280,59
593,019	64284,69
593,211	64254,99
593,404	64336,7
593,596	64267,48
593,789	64296,15
593,982	64271,17
594,174	64312,95
594,367	64287,55
594,559	64255,61
594,752	64326,06
594,944	64288,78
595,137	64275,27
595,329	64277,52
595,522	64265,03
595,714	64286,32
595,907	64288,58
596,099	64291,03
596,292	64292,06
596,484	64294,31
596,676	64333,43
596,869	64291,03
597,061	64224,68
597,253	64326,67
597,446	64309,47
597,638	64296,15
597,83	64277,11
598,023	64235,53
598,215	64322,57
598,407	64308,65
598,6	64355,14
598,792	64272,81
598,984	64299,64
599,176	64281,2
599,369	64271,37
599,561	64229,6
599,753	64325,85
599,945	64257,86
600,137	64308,65
600,329	64275,06
600,522	64298
600,714	64332,61
600,906	64351,86
601,098	64269,94
601,29	64296,77
601,482	64302,5
601,674	64295,75
601,866	64271,58
602,058	64310,7
602,25	64275,27
602,442	64244,96
602,634	64296,77
602,826	64338,34
603,018	64327,49
603,21	64268,71
603,402	64290,22
603,594	64308,44
603,786	64299,23
603,978	64251,71
604,17	64319,09
604,362	64265,23
604,554	64284,48
604,745	64267,48
604,937	64300,66
605,129	64240,04
605,321	64335,68
605,513	64318,89
605,704	64324,21
605,896	64285,91
606,088	64304,76
606,28	64288,17
606,471	64270,76
606,663	64321,34
606,855	64355,96
607,047	64268,92
607,238	64312,13
607,43	64306,8
607,622	64274,65
607,813	64281,41
608,005	64316,02
608,197	64258,68
608,388	64316,84
608,58	64333,02
608,771	39469,91
608,963	45286,36
609,154	2695,05
609,346	4038,53
609,537	72,53
609,729	113,4
609,921	28,26
610,112	65,27
610,303	45,17
610,495	62,51
610,686	26,64
610,878	70,91
611,069	75,82
611,261	30,31
611,452	48,81
611,643	49,94
611,835	44,82
612,026	12,56
612,217	23,13
612,409	44,88
612,6	29,95
612,791	29,29
612,983	32,61
613,174	47,67
613,365	210,11
613,557	362,65
613,748	588,01
613,939	819,11
614,13	1117,37
614,321	1373,18
614,513	1476,57
614,704	1433,3
614,895	1348,79
615,086	1131,93
615,277	796,54
615,468	548,17
615,659	357,88
615,851	280,91
616,042	183,55
616,233	140,05
616,424	86,68
616,615	29,78
616,806	20,92
616,997	60,18
617,188	41,83
617,379	19,57
617,57	-15,18
617,761	-6,06
617,952	-27,31
618,143	-52,55
618,334	6,6
618,524	-14,33
618,715	-1,81
618,906	10,29
619,097	14,59
619,288	6,32
619,479	-32,26
619,67	-22,59
619,86	-14,08
620,051	-8,96
620,242	-30,43
620,433	-16,18
620,624	-58,92
620,814	-56,55
621,005	-51,15
621,196	-20,02
621,386	-63,93
621,577	-26,27
621,768	-68,27
621,958	-2,88
622,149	-16,92
622,34	-25,41
622,53	-36,01
622,721	-3,21
622,912	-65
623,102	-59,4
623,293	-41,74
623,483	-49,62
623,674	-35,22
623,864	-40,66
624,055	-4,35
624,245	-44,93
624,436	1,55
624,626	-18,44
624,817	-33,88
625,007	-33,05
625,198	-15,28
625,388	-34,67
625,579	-87,29
625,769	-55,89
625,959	-44,64
626,15	-8,61
626,34	-24,65
626,531	-91,6
626,721	-67,72
626,911	-4,06
627,101	-46,5
627,292	-52,09
627,482	-29,83
627,672	-19,17
627,863	-32,37
628,053	-106,41
628,243	-48,35
628,433	-26,46
628,623	-69,97
628,814	-45,21
629,004	-49,73
629,194	-21,83
629,384	-42,94
629,574	-46,33
629,764	-95,39
629,955	-62,7
630,145	-62,13
630,335	-49,95
630,525	-73,39
630,715	-59,34
630,905	-81,16
631,095	-62,54
631,285	-70,1
631,475	-61,59
631,665	-134,34
631,855	-47,24
632,045	-59,92
632,235	-50,99
632,425	-59,99
632,615	-33,93
632,805	-71,6
632,994	-69,38
633,184	-80,83
633,374	-97,46
633,564	-67,79
633,754	-81,24
633,944	-93,92
634,133	-49,81
634,323	-88,74
634,513	-70,51
634,703	-119,39
634,893	-77,02
635,082	-73,76
635,272	-48,25
635,462	-72,07
635,651	-104,81
635,841	-68,82
636,031	-27,99
636,221	-58,95
636,41	-35,05
636,6	-40,28
636,789	-99,36
636,979	-61,96
637,169	-51,5
637,358	-50,99
637,548	-61,94
637,737	-59,8
637,927	-58,76
638,116	-67,69
638,306	-67,01
638,495	-82,31
638,685	-80,37
638,874	-67,97
639,064	-78,1
639,253	-81
639,443	-57,58
639,632	-39,71
639,822	-42,17
640,011	-61,74
640,2	-78,17
640,39	-53,09
640,579	-74,43
640,768	-47,05
640,958	-60,35
641,147	-52,22
641,336	-63,41
641,526	-76,31
641,715	-64,81
641,904	-101,86
642,093	-29,65
642,283	-103,5
642,472	-113,86
642,661	-70,38
642,85	-93,35
643,039	-51,87
643,228	-143,4
643,418	-88,38
643,607	-74,76
643,796	-92,74
643,985	-66,38
644,174	-87,93
644,363	-94,11
644,552	-51,72
644,741	-42,83
644,93	-51,1
645,119	-102,46
645,308	-65,25
645,497	-90,8
645,686	-96,43
645,875	-48,72
646,064	-80,29
646,253	-80,58
646,442	-73,69
646,631	-45,98
646,82	-48,85
647,009	-67,47
647,198	-89,35
647,387	-64,51
647,575	-53,86
647,764	-323,56
647,953	-68,78
648,142	-64,73
648,331	-83,9
648,519	-72,39
648,708	-89,27
648,897	-71,01
649,086	-69,46
649,274	-55,47
649,463	-48,66
649,652	-102,79
649,84	-62,49
650,029	-104,48
650,218	-72,23
650,406	-70,89
650,595	-71,41
650,784	-126,36
650,972	-86,99
651,161	-81,4
651,349	-66,41
651,538	-70,65
651,726	-100,36
651,915	-90,8
652,104	-84,59
652,292	-64,32
652,481	-78,72
652,669	-102,29
652,857	-84,64
653,046	-102,44
653,234	-69,52
653,423	-102,3
653,611	-72,7
653,8	-65,3
653,988	-77,95
654,176	-87,92
654,365	-52,11
654,553	-106,7
654,741	-93,2
654,93	-30,46
655,118	-53,42
655,306	-63,53
655,494	-25,25
655,683	-55,83
655,871	-78,69
656,059	-86,55
656,247	-67,33
656,436	-67,8
656,624	-99,06
656,812	-81,7
657	-80,48
657,188	-95,7
657,376	-64,7
657,564	-82,47
657,753	-73,35
657,941	-76,8
658,129	-98,13
658,317	-82,15
658,505	-39,13
658,693	-73,44
658,881	-65,01
659,069	-72,01
659,257	-76,69
659,445	-71,05
659,633	-74,84
659,821	-72,21
660,009	-106,05
660,197	-78,69
660,384	-90,9
660,572	-140,41
660,76	-74,98
660,948	-93,45
661,136	-69,61
661,324	-95,16
661,512	-107,72
661,699	-49,94
661,887	-99,04
662,075	-96,88
662,263	-95,92
662,451	-74,2
662,638	-81,92
662,826	-97,01
663,014	-113,57
663,201	-128,61
663,389	-74,18
663,577	-82,11
663,764	-118,46
663,952	-59,8
664,14	-87,43
664,327	-76,01
664,515	-94,69
664,702	-111,27
664,89	-101,2
665,078	-62,82
665,265	-69,25
665,453	-88,55
665,64	-54,57
665,828	-60,19
666,015	-86,42
666,203	-69,44
666,39	-60,82
666,578	-48,36
666,765	-63,09
666,952	-116,79
667,14	-97,7
667,327	-84,53
667,515	-75,76
667,702	-81,85
667,889	-75,08
668,077	-87
668,264	-126,23
668,451	-102,03
668,638	-83,57
668,826	-100,55
669,013	-99,02
669,2	-107,66
669,388	-121,28
669,575	-107,09
669,762	-63,42
669,949	-104,88
670,136	-406,24
670,323	-120,95
670,511	-75,58
670,698	-85,68
670,885	-100
671,072	-101,23
671,259	-110,12
671,446	-71,69
671,633	-81,27
671,82	-65,86
672,007	-64,67
672,194	-86,48
672,381	-82,96
672,568	-109,47
672,755	-85,7
672,942	-112,3
673,129	-82,91
673,316	-58,95
673,503	-110,52
673,69	-79,03
673,877	-96,85
674,064	-77,49
674,251	-69,63
674,437	-69,08
674,624	-104,85
674,811	-101,23
674,998	-68,67
675,185	-75,33
675,372	-107,48
675,558	-85,56
675,745	-98,21
675,932	-78,66
676,119	-51,31
676,305	-100,87
676,492	-98,17
676,679	-78,64
676,865	-122,26
677,052	-91,81
677,239	-65,93
677,425	-106,49
677,612	-138,22
677,798	-93,95
677,985	-109,33
678,172	-96,2
678,358	-103,53
678,545	-85,05
678,731	-69,2
678,918	-67,22
679,104	-88,89
679,291	-207,35
679,477	-89,89
679,664	-75,5
679,85	-84,34
680,036	-125,08
680,223	-71,8
680,409	-104,88
680,596	-81,71
680,782	-101,72
680,968	-105,45
681,155	-71,82
681,341	-107,42
681,527	-115,35
681,714	-104,74
681,9	-54,98
682,086	-90,42
682,272	-42,82
682,459	-79,52
682,645	-116,09
682,831	-102,81
683,017	-137,75
683,204	-101,83
683,39	-73,16
683,576	-123,69
683,762	-84,93
683,948	-90,23
684,134	-40,52
684,32	-78,32
684,506	-101,1
684,693	-108,71
684,879	-30,7
685,065	-69,55
685,251	-29,33
685,437	-30,53
685,623	-38,69
685,809	-33,4
685,995	-76,59
686,181	-36,66
686,366	-70,81
686,552	-43,18
686,738	-38,11
686,924	-74,91
687,11	-50,5
687,296	-97,83
687,482	-95,2
687,668	-36,29
687,853	-43,98
688,039	-50,94
688,225	-54,39
688,411	-54,08
688,597	-115,96
688,782	-73,28
688,968	-51,91
689,154	-69,63
689,34	-103,81
689,525	-111,25
689,711	-93,79
689,897	-126,39
690,082	-79,22
690,268	-99,43
690,454	-77,99
690,639	-91,7
690,825	-55,59
691,01	-72,4
691,196	-100,06
691,381	-54,21
691,567	-49,83
691,753	-71,5
691,938	-59,1
692,124	-57,36
692,309	-49,27
692,494	-62,89
692,68	-39,85
692,865	-62,07
693,051	-86,85
693,236	-91,9
693,422	-103,64
693,607	-73,83
693,792	-59,31
693,978	-5,39
694,163	272,71
694,348	761,28
694,534	1376,13
694,719	1984,56
694,904	2284,07
695,089	2436,88
695,275	2240,07
695,46	1750,45
695,645	1143,19
695,83	798,82
696,016	590,45
696,201	400,73
696,386	257,05
696,571	127,76
696,756	70,72
696,941	4,84
697,126	21,82
697,311	-19,77
697,497	-73,61
697,682	-24,24
697,867	-70,79
698,052	-67,61
698,237	-83,96
698,422	-59,59
698,607	-65,74
698,792	-56,08
698,977	-78,07
699,162	-92,41
699,347	-107,77
699,531	-50,61
699,716	-74,61
699,901	-47,67
700,086	-102,03
700,271	-88,61
700,456	-94,58
700,641	-74,28
700,825	-25,52
701,01	-83,7
701,195	-62,04
701,38	-46,27
701,565	-83,54
701,749	-67,01
701,934	-55,18
702,119	-105,67
702,303	-54,17
702,488	-63,09
702,673	-101,01
702,857	-87,82
703,042	-75,74
703,227	-73,06
703,411	-43,51
703,596	-95,28
703,78	-65,36
703,965	-61,48
704,15	-15,75
704,334	116,01
704,519	370,1
704,703	734,67
704,888	1057,73
705,072	1253,49
705,257	1321,34
705,441	1229,56
705,625	873,89
705,81	568,69
705,994	394,02
706,179	242,86
706,363	166,03
706,547	91,29
706,732	-42,15
706,916	1,97
707,1	5,52
707,285	-27,17
707,469	-67,22
707,653	-73,74
707,837	-26,51
708,022	-80,72
708,206	-101,21
708,39	-46,75
708,574	-68,81
708,759	-86,47
708,943	-85,04
709,127	-72,61
709,311	-74,7
709,495	-76,54
709,679	-73,52
709,863	-93,16
710,047	-77,76
710,231	-73,68
710,415	-41,63
710,6	-91,75
710,784	-80,06
710,968	-80,01
711,152	-68,07
711,336	-52,87
711,519	-93,94
711,703	-45,43
711,887	-69,68
712,071	-64,26
712,255	-49,65
712,439	-79,03
712,623	-22,67
712,807	10,23
712,991	47,66
713,174	82,32
713,358	77,27
713,542	40,08
713,726	5,72
713,91	-42,74
714,093	-54,76
714,277	-33,93
714,461	-59,94
714,645	-27,05
714,828	-34,72
715,012	-54,68
715,196	-23,25
715,379	-91,89
715,563	-63
715,747	-72,92
715,93	-40,91
716,114	-35,98
716,297	-35,14
716,481	-28,5
716,664	-42,5
716,848	-32,5
717,031	-37,93
717,215	-1,1
717,398	-58,54
717,582	-48,58
717,765	-77,73
717,949	-28,13
718,132	-48,23
718,316	-9,86
718,499	-30,46
718,682	-73,96
718,866	-27,01
719,049	-54,25
719,233	-20,95
719,416	-51,56
719,599	-80,7
719,782	-33,66
719,966	-37,85
720,149	-44,85
720,332	-73,08
720,515	-40,69
720,699	-68,1
720,882	-54,8
721,065	-50,74
721,248	-91,43
721,431	-69,96
721,615	-20,79
721,798	-82,67
721,981	-53,97
722,164	-55,42
722,347	-71,57
722,53	-107,94
722,713	-29,93
722,896	-53,37
723,079	-41,18
723,262	-65,19
723,445	-66,59
723,628	-34,72
723,811	-40,78
723,994	-70,68
724,177	-34,67
724,36	-44,69
724,543	-19,23
724,726	-23,88
724,909	19,27
725,091	133,42
725,274	311,42
725,457	381,96
725,64	482,32
725,823	479,86
726,006	445,31
726,188	334,07
726,371	170,55
726,554	133,44
726,737	74,31
726,919	38,74
727,102	4,63
727,285	1,91
727,467	-26,62
727,65	-40,09
727,833	-42,12
728,015	-55,95
728,198	-53,98
728,38	-56,24
728,563	-43
728,746	-36,2
728,928	-44,75
729,111	-18,35
729,293	-44,53
729,476	-51,35
729,658	-34,45
729,841	-40,33
730,023	-94,98
730,205	-29,03
730,388	-65,96
730,57	-42,5
730,753	-61,12
730,935	-64,05
731,117	-93,67
731,3	-27,72
731,482	-33,14
731,664	-47,13
731,847	-36,89
732,029	-62,43
732,211	-71,64
732,394	-11,43
732,576	-42,15
732,758	-89,05
732,94	-38,01
733,122	-60,16
733,305	-84,28
733,487	-47,38
733,669	-55,39
733,851	-29,24
734,033	-41,81
734,215	-87,15
734,397	-61,53
734,58	-62,43
734,762	-28,98
734,944	-80,86
735,126	-7,18
735,308	-47,95
735,49	-4,98
735,672	-0,93
735,854	126,36
736,036	417,3
736,218	929,09
736,399	1534,83
736,581	2017,79
736,763	2295,07
736,945	2292,03
737,127	2028,96
737,309	1456,3
737,491	1015,1
737,672	737,18
737,854	529,67
738,036	349,59
738,218	209,4
738,4	167,43
738,581	58,94
738,763	47,31
738,945	11,38
739,127	-26,78
739,308	-28,35
739,49	-34,73
739,672	-39,44
739,853	-78,39
740,035	-35,36
740,216	-70,16
740,398	-82,56
740,58	-55,51
740,761	-70,38
740,943	-68,19
741,124	-33,27
741,306	-39,73
741,487	-47,79
741,669	-47,54
741,85	-6,17
742,032	-56,84
742,213	-50,61
742,394	-44,83
742,576	-57,99
742,757	-71,09
742,939	-61,23
743,12	-56,02
743,301	-44,83
743,483	-34,47
743,664	-13,84
743,845	-62,74
744,027	-54,35
744,208	-53,61
744,389	-63,07
744,57	-15,44
744,752	-75,25
744,933	-53,86
745,114	-29,35
745,295	-39,84
745,476	-61,12
745,657	-36,33
745,839	-17,25
746,02	-65,2
746,201	-57,91
746,382	-48,74
746,563	-97,64
746,744	-47,87
746,925	-33,91
747,106	-54,24
747,287	-65,41
747,468	-55,56
747,649	-35,33
747,83	71,54
748,011	315,41
748,192	735,1
748,373	1264,59
748,554	1729,94
748,735	1915,44
748,915	2026,5
749,096	2085,54
749,277	2067,54
749,458	2118,11
749,639	2344,03
749,82	2379,25
750	2267,99
750,181	1914,93
750,362	1414,16
750,543	880,68
750,723	611,51
750,904	455,47
751,085	288,34
751,265	219,5
751,446	100,76
751,627	38,22
751,807	-7,48
751,988	-11,26
752,169	-32,1
752,349	-34,66
752,53	-42,17
752,71	-25,42
752,891	-47,2
753,071	-51,26
753,252	-12,16
753,432	-39,76
753,613	-49,72
753,793	-78,29
753,974	-60,46
754,154	-79,25
754,334	-65,72
754,515	-44,33
754,695	-49,7
754,876	-80,67
755,056	-81,81
755,236	-32,72
755,417	-41,98
755,597	-85,67
755,777	-40,03
755,957	-67,31
756,138	-29,27
756,318	-61,8
756,498	-38,78
756,678	-30,61
756,859	-59,58
757,039	-38,04
757,219	-50,19
757,399	-36,81
757,579	-41,59
757,759	3,12
757,939	5,3
758,119	-34,25
758,3	-47,89
758,48	-30,37
758,66	21,92
758,84	24,67
759,02	-23,68
759,2	9,19
759,38	24,31
759,56	-25,55
759,74	29,21
759,919	17,43
760,099	-21,26
760,279	0,77
760,459	14,78
760,639	52,87
760,819	227,14
760,999	1042,4
761,178	2956,07
761,358	5714,58
761,538	8824,61
761,718	11114,82
761,898	12157,49
762,077	12131,63
762,257	10347,48
762,437	7584,15
762,616	5090,48
762,796	3713,76
762,976	2553,79
763,155	1725,31
763,335	1059,61
763,515	656,63
763,694	414,98
763,874	452,13
764,053	889,36
764,233	1837,79
764,413	3079,75
764,592	4329,5
764,772	5086,53
764,951	5398,01
765,131	5032,13
765,31	4085,75
765,489	2861,5
765,669	1961,81
765,848	1406,39
766,028	926,57
766,207	605,82
766,386	344,79
766,566	219,47
766,745	111,48
766,924	63,47
767,104	31,81
767,283	148,61
767,462	448,27
767,642	1043,11
767,821	1734,27
768	2421,1
768,179	2726,23
768,358	2898,37
768,538	2678,81
768,717	2193,38
768,896	1526,67
769,075	1003,87
769,254	761,67
769,433	448,71
769,612	300,28
769,791	341,18
769,97	661,31
770,149	1328,76
770,328	2263,07
770,507	3192,14
770,686	3720,86
770,865	3887,25
771,044	3651,37
771,223	2934,95
771,402	1943,27
771,581	1324,88
771,76	943,22
771,939	527,5
772,118	386,72
772,297	224,44
772,475	101,85
772,654	26,53
772,833	-0,82
773,012	-13,21
773,191	-10,62
773,369	-40,48
773,548	-65,5
773,727	35,26
773,906	-54,35
774,084	-23,53
774,263	-14,24
774,442	-48,83
774,62	-19,17
774,799	-26,32
774,977	-45,49
775,156	-43,92
775,335	-40,61
775,513	-10,51
775,692	-3,35
775,87	-101,36
776,049	7,34
776,227	-48,98
776,406	-52,65
776,584	-28,68
776,763	-32,67
776,941	2,52
777,119	2,55
777,298	-15,92
777,476	-59,61
777,655	-35,02
777,833	-11,62
778,011	-4,3
778,19	-3,09
778,368	-31,17
778,546	-32,51
778,725	-59,15
778,903	-9,72
779,081	-25,17
779,259	-35,49
779,437	-17,63
779,616	-30,37
779,794	-25,34
779,972	-76,12
780,15	-32,5
780,328	-13,23
780,506	-22,68
780,685	-12,43
780,863	-16,85
781,041	-0,15
781,219	-51,43
781,397	-75,35
781,575	-7,67
781,753	-13,36
781,931	-0,12
782,109	-32,12
782,287	-30,24
782,465	-41,15
782,643	-34,77
782,82	-26,35
782,998	-85,44
783,176	-64,51
783,354	-24,54
783,532	-34,36
783,71	-24,89
783,888	-41,21
784,065	-19,47
784,243	-32,4
784,421	-28,4
784,599	-53,42
784,776	-35,4
784,954	-24,4
785,132	-34,61
785,31	-3,75
785,487	-38,29
785,665	-14,47
785,842	-40,81
786,02	-108,57
786,198	-27,42
786,375	-16,52
786,553	-52,54
786,73	-8,87
786,908	-28,75
787,085	-34,89
787,263	-20,4
787,44	-28,23
787,618	-52,83
787,795	2,3
787,973	-4,99
788,15	-14,47
788,328	-26,24
788,505	-43,46
788,682	-23,91
788,86	-2,94
789,037	-16,52
789,215	-17,7
789,392	-9,42
789,569	-45,78
789,746	-50,41
789,924	-13,15
790,101	-24,29
790,278	-35,52
790,455	-4,31
790,633	-43,4
790,81	-31,47
790,987	18,99
791,164	5,14
791,341	-6,24
791,518	2,93
791,695	-12,36
791,873	-2,19
792,05	2,81
792,227	86,14
792,404	331,38
792,581	776,37
792,758	1190,09
792,935	1769,98
793,112	1971,5
793,289	2059,94
793,466	1800,25
793,643	1336,05
793,82	816,58
793,996	438,14
794,173	244,5
794,35	191,14
794,527	83,69
794,704	64,83
794,881	66,1
795,057	14,78
795,234	34,94
795,411	-11,39
795,588	5,94
795,765	16,83
795,941	-5,07
796,118	-14,57
796,295	-52,96
796,471	12,4
796,648	6,32
796,825	-34,81
797,001	-27,74
797,178	-29,05
797,354	-43,59
797,531	-19,52
797,708	-2,23
797,884	8,12
798,061	90,11
798,237	268,77
798,414	484,87
798,59	786,22
798,767	1035,58
798,943	1267,3
799,119	1544,6
799,296	1853,21
799,472	1998,96
799,649	2153,43
799,825	2113,36
800,001	2027,52
800,178	1639,15
800,354	1021,7
800,53	568,96
800,707	393,28
800,883	243,55
801,059	157,74
801,235	72,78
801,411	101,96
801,588	69,19
801,764	0,9
801,94	49,91
802,116	6,13
802,292	56,18
802,468	23,07
802,645	3,85
802,821	0,36
802,997	-10,14
803,173	-9,97
803,349	1,77
803,525	3,74
803,701	23,14
803,877	30,41
804,053	-19,72
804,229	11,38
804,405	-6,25
804,581	-18,33
804,756	12,51
804,932	24,28
805,108	6,51
805,284	14,28
805,46	5,96
805,636	18,59
805,812	2,89
805,987	9,68
806,163	-5,45
806,339	-52,96
806,515	34,09
806,69	22,89
806,866	-20,48
807,042	6,78
807,217	-3,92
807,393	20,84
807,569	54,71
807,744	133,96
807,92	371,54
808,096	952,67
808,271	1544,16
808,447	2098,21
808,622	2430,48
808,798	2570,69
808,973	2769,61
809,149	3423,7
809,324	4650,26
809,5	6253,63
809,675	7643,12
809,851	8059,42
810,026	7531,22
810,201	6258,03
810,377	4277,75
810,552	2411,91
810,728	1423,21
810,903	971,69
811,078	651,11
811,253	501,44
811,429	390,76
811,604	291,82
811,779	191,71
811,955	133,64
812,13	117,7
812,305	87,37
812,48	87,73
812,655	38,14
812,83	39,94
813,006	51,23
813,181	69,48
813,356	81,31
813,531	100,12
813,706	44,11
813,881	53,86
814,056	76,22
814,231	54,67
814,406	54,86
814,581	74,5
814,756	78,24
814,931	67,63
815,106	64,77
815,281	69,74
815,456	134,29
815,631	426,94
815,805	1441,55
815,98	3577,35
816,155	6317,51
816,33	8958,89
816,505	10860,33
816,68	11335,21
816,854	11437,56
817,029	11440,05
817,204	12769,01
817,379	15290,89
817,553	18477,42
817,728	19934,35
817,903	19376,83
818,077	16764,38
818,252	12339,52
818,427	7536,65
818,601	4302,99
818,776	3043,77
818,95	2092,27
819,125	1483,5
819,299	1149,8
819,474	829,19
819,648	641,36
819,823	438,99
819,997	334,4
820,172	261,12
820,346	206,01
820,521	154,91
820,695	135,06
820,87	99,82
821,044	79,94
821,218	35,46
821,393	21,79
821,567	65,71
821,741	53,83
821,916	36,03
822,09	24,45
822,264	16,39
822,438	59,76
822,613	49,14
822,787	16,31
822,961	43,07
823,135	15,83
823,309	32,23
823,483	60,43
823,658	52,34
823,832	105,05
824,006	346,05
824,18	617,2
824,354	926,71
824,528	1215,88
824,702	1281,21
824,876	1332,3
825,05	1106,6
825,224	819,57
825,398	512,94
825,572	355,64
825,746	248,5
825,92	137,5
826,093	122,19
826,267	75,29
826,441	72,72
826,615	2,29
826,789	16,81
826,963	-2,82
827,136	21,41
827,31	24,14
827,484	37,28
827,658	30,33
827,831	31,95
828,005	11,05
828,179	54,68
828,353	-3,7
828,526	14,86
828,7	14,17
828,873	27,63
829,047	28,19
829,221	1,85
829,394	21,81
829,568	18,81
829,741	-1,49
829,915	-15,09
830,088	-38,06
830,262	-3,29
830,435	20,75
830,609	1,96
830,782	4,51
830,956	14,78
831,129	18,75
831,302	10,4
831,476	9,44
831,649	27,21
831,822	-7,1
831,996	-3,57
832,169	-23,47
832,342	43,25
832,516	-34,25
832,689	35,34
832,862	-16,77
833,035	-30,87
833,209	-16,82
833,382	-1,73
833,555	16,97
833,728	35,07
833,901	12,29
834,074	-6,14
834,247	1,15
834,42	-1,18
834,594	23,19
834,767	-21,96
834,94	15,19
835,113	-39,05
835,286	19,08
835,459	-4,44
835,632	38,63
835,805	9,33
835,977	2,9
836,15	-18,56
836,323	30,5
836,496	0,84
836,669	18,72
836,842	1,67
837,015	-20,78
837,188	18,09
837,36	-20,79
837,533	2,55
837,706	21,92
837,879	3,22
838,051	58,02
838,224	132,46
838,397	381,9
838,569	651,63
838,742	983,93
838,915	1179,9
839,087	1327,7
839,26	1271,62
839,433	1155,06
839,605	843,81
839,778	731,6
839,95	623,48
840,123	817,52
840,295	1186,23
840,468	1525,01
840,64	1758,66
840,813	1785,94
840,985	1705,85
841,158	1383,77
841,33	979,28
841,502	587,2
841,675	381,46
841,847	254,39
842,019	220,11
842,192	164,27
842,364	83,95
842,536	98,49
842,709	51,52
842,881	54,35
843,053	64,8
843,225	40,85
843,398	7,55
843,57	1,78
843,742	33,43
843,914	-16,84
844,086	-11,28
844,258	33,34
844,43	15,36
844,602	-28,78
844,775	28,03
844,947	-20,87
845,119	19,73
845,291	-20,84
845,463	-22,76
845,635	14,7
845,807	5,89
845,979	-7,78
846,15	18,56
846,322	18,54
846,494	16,42
846,666	7,12
846,838	-5,12
847,01	9,17
847,182	-1,95
847,354	-9,47
847,525	-4,72
847,697	-8,41
847,869	27,87
848,041	6,32
848,212	-18,52
848,384	20,42
848,556	-1,65
848,727	7,99
848,899	7,44
849,071	-7,34
849,242	10,98
849,414	12,57
849,585	49,2
849,757	78,22
849,929	156,66
850,1	294,44
850,272	356,18
850,443	426,36
850,615	391,53
850,786	368,53
850,958	293,18
851,129	195,33
851,3	67,88
851,472	64,56
851,643	39,51
851,815	56,45
851,986	26,97
852,157	9,58
852,329	-45,02
852,5	24,53
852,671	-8,38
852,842	4,95
853,014	13,66
853,185	-16,44
853,356	-12,74
853,527	0,43
853,698	-8,74
853,87	19,4
854,041	-38,37
854,212	-3,97
854,383	4,98
854,554	24,09
854,725	-53,02
854,896	-9,75
855,067	-8,84
855,238	0,59
855,409	14,73
855,58	-8,54
855,751	-26,53
855,922	-11,81
856,093	-43,57
856,264	41,04
856,435	10,68
856,606	7,09
856,777	-17,22
856,948	17,1
857,118	19,44
857,289	15,39
857,46	-25,38
857,631	11,61
857,802	-24,07
857,972	1,44
858,143	-13,12
858,314	31,38
858,484	28,6
858,655	7
858,826	-20,1
858,996	13,16
859,167	-30,89
859,338	16,97
859,508	-13,39
859,679	26,2
859,849	6,95
860,02	3,39
860,19	-4,3
860,361	-1,57
860,531	12,24
860,702	-75,65
860,872	-37,62
861,043	7,2
861,213	-66,56
861,384	12,75
861,554	39,83
861,724	48,21
861,895	-6,98
862,065	-45,92
862,235	-20,6
862,406	1,81
862,576	30,14
862,746	-16,1
862,916	4,95
863,087	-50,3
863,257	0,65
863,427	29,56
863,597	-7,8
863,767	-19,17
863,937	46,71
864,108	-18,93
864,278	18,2
864,448	-11,25
864,618	-9,7
864,788	58,37
864,958	31,46
865,128	51,67
865,298	39,51
865,468	24,91
865,638	83,4
865,808	31,51
865,978	-16,33
866,148	40,91
866,318	18,89
866,487	-32,26
866,657	-2,52
866,827	-41,76
866,997	21,7
867,167	-31,02
867,337	3,53
867,506	0,1
867,676	17,39
867,846	-0,56
868,016	-7,35
868,185	4,13
868,355	-19,71
868,525	-14,08
868,694	-4,5
868,864	-29,54
869,034	-2,66
869,203	-17,94
869,373	1,47
869,542	-33,82
869,712	-19,88
869,881	-18,32
870,051	20,12
870,22	-1,84
870,39	14,84
870,559	20,17
870,729	44,7
870,898	3,01
871,068	-22,27
871,237	23,98
871,406	-2,25
871,576	7,3
871,745	18,61
871,914	26,77
872,084	-17,23
872,253	-9,13
872,422	17,88
872,591	-5,61
872,761	21,16
872,93	-171,74
873,099	22,28
873,268	-21,19
873,437	16,67
873,607	20,39
873,776	4,33
873,945	-0,08
874,114	30,58
874,283	-10,65
874,452	16,83
874,621	-11,95
874,79	-27,09
874,959	2,27
875,128	-5,35
875,297	-6,36
875,466	-23,03
875,635	-18,78
875,804	-8,19
875,973	23,51
876,142	-49,62
876,31	15,99
876,479	-9,18
876,648	-17,69
876,817	15,09
876,986	-26,49
877,155	-1,01
877,323	23,59
877,492	-22,16
877,661	-32,56
877,829	-7,02
877,998	8,57
878,167	3,37
878,335	4,1
878,504	27,76
878,673	5,71
878,841	41,61
879,01	5,12
879,178	8,4
879,347	-3,64
879,515	-5,7
879,684	-27,06
879,852	9,75
880,021	-0,91
880,189	-11,54
880,358	-1,15
880,526	-102,14
880,695	42,85
880,863	-41,16
881,031	-3,84
881,2	-31,17
881,368	15,22
881,536	-39,9
881,705	5,75
881,873	-4,19
882,041	-18,08
882,21	-30,17
882,378	-28,81
882,546	18,37
882,714	-1,35
882,882	24,17
883,05	-30,48
883,219	11,46
883,387	16,73
883,555	24,22
883,723	7,85
883,891	-12,9
884,059	13,02
884,227	-9,5
884,395	-13,28
884,563	3,61
884,731	-13,73
884,899	-26,45
885,067	13,47
885,235	3,15
885,403	-12,88
885,571	-13,92
885,739	-2,79
