Data from Subt18__6__11-04-04-337.txt Node

Date: Mon Feb 19 11:04:04 CET 2024
User: Versuch 234
Spectrometer: USB4F03543
Trigger mode: 4
Integration Time (sec): 3,000000E-2
Scans to average: 130
Electric dark correction enabled: true
Nonlinearity correction enabled: false
Boxcar width: 0
XAxis mode: Wavelengths
Number of Pixels in Spectrum: 3648
>>>>>Begin Spectral Data<<<<<
179,969	82,5
180,181	82,5
180,394	82,5
180,606	87,76
180,819	100,82
181,031	-10,6
181,243	-29,05
181,456	13,36
181,668	12,73
181,88	-28,88
182,093	-2,27
182,305	31,68
182,518	32,23
182,73	-34,53
182,942	-4,99
183,155	12,37
183,367	7,96
183,579	-11,67
183,791	-25,03
184,004	28,09
184,216	19,58
184,428	17,72
184,641	9,04
184,853	44,65
185,065	33,52
185,277	30,15
185,49	-3,09
185,702	53,25
185,914	37,79
186,126	2,62
186,338	14,78
186,551	8,65
186,763	7,91
186,975	50
187,187	6,44
187,399	24,18
187,612	-8,4
187,824	16,76
188,036	7,53
188,248	12,38
188,46	23,24
188,672	24,31
188,885	33,98
189,097	-24,69
189,309	36,55
189,521	22,76
189,733	23,66
189,945	18,84
190,157	0,27
190,369	51,01
190,581	17,93
190,794	4,69
191,006	43,48
191,218	20,45
191,43	3,06
191,642	40,31
191,854	21,3
192,066	-12,05
192,278	20,73
192,49	27,51
192,702	40,82
192,914	40,94
193,126	47,04
193,338	14,86
193,55	36,77
193,762	17,63
193,974	57,5
194,186	44,35
194,398	41,75
194,61	11,83
194,822	27,38
195,034	5,23
195,246	2,1
195,457	50,87
195,669	-0,24
195,881	15,64
196,093	48,21
196,305	43,39
196,517	62,2
196,729	18,95
196,941	43,02
197,153	-10,54
197,365	1,31
197,576	53,36
197,788	70,69
198	5,53
198,212	-11,09
198,424	10,43
198,636	51,92
198,847	19,74
199,059	32,09
199,271	48,73
199,483	4,74
199,695	33,56
199,906	22,39
200,118	39,54
200,33	23,32
200,542	-130,25
200,753	23,13
200,965	27,52
201,177	4,9
201,389	21,94
201,6	53,03
201,812	29,55
202,024	23,99
202,235	30,94
202,447	-23,35
202,659	-22,83
202,871	14,24
203,082	18,92
203,294	36,8
203,506	10,33
203,717	32,23
203,929	19,19
204,141	38,94
204,352	-5,64
204,564	40,41
204,775	28,94
204,987	-17,12
205,199	11,75
205,41	38,42
205,622	-8,48
205,833	56,4
206,045	12,38
206,257	7,45
206,468	56,51
206,68	40,14
206,891	26,51
207,103	61,53
207,314	44,22
207,526	-1,17
207,737	37,13
207,949	29,3
208,16	24,26
208,372	20,89
208,583	0,76
208,795	29,35
209,006	16,87
209,218	45,29
209,429	39,24
209,641	50,25
209,852	30,59
210,064	11,58
210,275	38,01
210,487	13,19
210,698	-18,38
210,909	22,76
211,121	4,08
211,332	28,31
211,544	-9,97
211,755	-1,62
211,966	-3,26
212,178	24,17
212,389	-36,03
212,6	37,97
212,812	-3,42
213,023	31,51
213,234	12,26
213,446	3,72
213,657	31,92
213,868	-15,67
214,08	2,06
214,291	8,13
214,502	14,24
214,714	44,03
214,925	22,92
215,136	38,25
215,347	43,62
215,559	62,95
215,77	22,78
215,981	-3,94
216,192	55,78
216,404	8,02
216,615	9,11
216,826	29,03
217,037	32,31
217,249	25,27
217,46	-2,71
217,671	20,04
217,882	16,97
218,093	24,87
218,304	33,1
218,516	17,17
218,727	41,13
218,938	32,69
219,149	-24,62
219,36	31,9
219,571	10,85
219,782	17,38
219,993	-12,15
220,205	58,41
220,416	-2,32
220,627	11,45
220,838	-3,67
221,049	-35,6
221,26	-26,26
221,471	43,7
221,682	11,04
221,893	-9,22
222,104	62,27
222,315	68,87
222,526	50,96
222,737	8,65
222,948	9,15
223,159	11,86
223,37	8,37
223,581	27,06
223,792	40,16
224,003	41,02
224,214	42,39
224,425	24,56
224,636	39,24
224,847	7,83
225,058	28,44
225,269	36,55
225,48	38,74
225,691	46,74
225,902	-0,79
226,112	28,78
226,323	45,98
226,534	39,15
226,745	50,13
226,956	56,85
227,167	32,12
227,378	-5,4
227,589	45,45
227,799	3,31
228,01	15,82
228,221	51,66
228,432	38,27
228,643	48,05
228,853	36,91
229,064	57,06
229,275	14,46
229,486	49,84
229,697	57,34
229,907	55,53
230,118	31,22
230,329	57,67
230,54	50,22
230,75	-6,05
230,961	19,61
231,172	34,28
231,383	51,04
231,593	36,8
231,804	-4,6
232,015	30,18
232,225	13,28
232,436	15,04
232,647	0,91
232,857	21,52
233,068	28,96
233,279	17,9
233,489	38,3
233,7	11,7
233,91	45,26
234,121	19,03
234,332	32,52
234,542	44,8
234,753	56,71
234,964	26,43
235,174	41,78
235,385	27,22
235,595	37,27
235,806	5,58
236,016	51,03
236,227	32,34
236,437	56,79
236,648	42,58
236,858	56,71
237,069	60,64
237,279	58,24
237,49	49,12
237,7	31,66
237,911	30,39
238,121	70,53
238,332	38,34
238,542	35,82
238,753	54,54
238,963	47,09
239,174	45,4
239,384	40,75
239,595	51,83
239,805	60,38
240,015	63,25
240,226	39,92
240,436	27,66
240,647	45,13
240,857	52,95
241,067	54,71
241,278	-19,09
241,488	44,17
241,698	22,91
241,909	50,19
242,119	50,4
242,329	33,21
242,54	29,33
242,75	51,48
242,96	54,43
243,171	56
243,381	38,86
243,591	69,36
243,801	32,74
244,012	-7,26
244,222	43,59
244,432	82,67
244,642	56,07
244,853	63
245,063	62,54
245,273	31,95
245,483	43,34
245,694	46,46
245,904	45,4
246,114	37,56
246,324	78,59
246,534	67,95
246,744	60,04
246,955	90,02
247,165	26,8
247,375	22,98
247,585	60,12
247,795	55,37
248,005	49,32
248,215	22,39
248,425	55,67
248,636	-13,39
248,846	87,34
249,056	43,91
249,266	64,45
249,476	60,54
249,686	52,02
249,896	76,78
250,106	41,15
250,316	66,86
250,526	10,15
250,736	74,74
250,946	23,77
251,156	24,43
251,366	58,29
251,576	54,51
251,786	36,55
251,996	88,02
252,206	68,86
252,416	58,05
252,626	70,45
252,836	77,84
253,046	58,79
253,256	52,48
253,466	69,57
253,676	44,96
253,885	37,3
254,095	47,73
254,305	44,19
254,515	45,23
254,725	60,93
254,935	70,92
255,145	49,45
255,355	25,74
255,564	59,85
255,774	42,61
255,984	21,58
256,194	32,14
256,404	65,66
256,614	17,61
256,823	27,1
257,033	67,58
257,243	32,99
257,453	56,16
257,662	53,45
257,872	38,42
258,082	42,53
258,292	74,22
258,501	-13,66
258,711	-23,6
258,921	-1,78
259,131	68,29
259,34	64,29
259,55	32,36
259,76	45,54
259,969	40,23
260,179	67,47
260,389	26,61
260,598	8,24
260,808	25,51
261,018	46,52
261,227	16,02
261,437	60,01
261,647	19,96
261,856	60,48
262,066	34,12
262,275	12,9
262,485	36,82
262,694	25,6
262,904	41,04
263,114	25,05
263,323	51,07
263,533	68,04
263,742	57,44
263,952	53,7
264,161	57,74
264,371	50,68
264,58	49,8
264,79	60,1
264,999	57,97
265,209	38,44
265,418	35,16
265,628	37,84
265,837	19,68
266,047	40,64
266,256	-1,78
266,466	77,15
266,675	83,68
266,884	58,81
267,094	53,2
267,303	1,39
267,513	45,06
267,722	23,43
267,931	27,22
268,141	61,17
268,35	42,61
268,559	26,34
268,769	51,67
268,978	66,37
269,187	32,03
269,397	63,06
269,606	75,05
269,815	53,28
270,025	33,07
270,234	4,79
270,443	56,71
270,653	34,55
270,862	25,58
271,071	50,71
271,28	42,87
271,49	60,02
271,699	73,13
271,908	28,64
272,117	28,1
272,327	58,51
272,536	39,08
272,745	46,73
272,954	52,43
273,163	22,53
273,372	-0,41
273,582	53,15
273,791	41,1
274	66,84
274,209	60,79
274,418	21,98
274,627	-5,81
274,836	50,66
275,046	23,32
275,255	29,38
275,464	43,8
275,673	50,33
275,882	15,75
276,091	35,3
276,3	22,72
276,509	27,84
276,718	27,69
276,927	47,12
277,136	20,7
277,345	32,25
277,554	13,44
277,763	7,18
277,972	16,84
278,181	27,06
278,39	44,52
278,599	6,07
278,808	46,05
279,017	21,03
279,226	61,63
279,435	26,61
279,644	18,72
279,853	13,86
280,062	-29,81
280,271	22,81
280,48	41,56
280,688	34,89
280,897	0,06
281,106	43,04
281,315	51,53
281,524	39,56
281,733	31,48
281,942	40,58
282,151	7,66
282,359	6,14
282,568	46,54
282,777	28,21
282,986	48,06
283,195	33,56
283,403	25,06
283,612	46,58
283,821	72,28
284,03	77,13
284,238	92,76
284,447	54,11
284,656	48,88
284,865	25,19
285,073	45,07
285,282	33,7
285,491	41,29
285,699	43,05
285,908	21,17
286,117	53,04
286,325	23,33
286,534	-5,28
286,743	26,32
286,951	13,89
287,16	18,78
287,369	37,65
287,577	3,62
287,786	57,48
287,995	46,22
288,203	24,02
288,412	29,38
288,62	15,6
288,829	47,26
289,037	61,97
289,246	20,09
289,455	27,84
289,663	5,15
289,872	2,9
290,08	5,28
290,289	-4,49
290,497	49,4
290,706	10,98
290,914	47,94
291,123	55,59
291,331	43,62
291,54	0,33
291,748	-11,25
291,957	27,36
292,165	42,47
292,373	61,22
292,582	25,25
292,79	16,02
292,999	26,67
293,207	18,1
293,415	26,48
293,624	77,71
293,832	36,74
294,041	9,59
294,249	31,4
294,457	45,35
294,666	29,24
294,874	65,33
295,082	10,98
295,291	13,47
295,499	32,97
295,707	37,05
295,915	22,87
296,124	1,67
296,332	24,8
296,54	42,69
296,749	-0,19
296,957	5,07
297,165	41,15
297,373	40,5
297,581	26,75
297,79	31,81
297,998	38,97
298,206	51,14
298,414	40,82
298,622	0,65
298,831	10,04
299,039	47,83
299,247	21,6
299,455	41,26
299,663	-2,1
299,871	48,21
300,08	16,71
300,288	16,65
300,496	54,62
300,704	27,79
300,912	38,28
301,12	26,25
301,328	38,06
301,536	31,1
301,744	33,4
301,952	16,27
302,16	56,26
302,368	22,75
302,576	41,04
302,784	13,77
302,992	27,54
303,2	35,93
303,408	36,23
303,616	57,22
303,824	33,37
304,032	39,57
304,24	40,72
304,448	61,99
304,656	75,74
304,864	28,94
305,072	23,06
305,28	29,51
305,488	47,92
305,696	3,07
305,904	29,24
306,111	75,18
306,319	56,18
306,527	13,34
306,735	34
306,943	4,65
307,151	58,9
307,359	47,56
307,566	-4,22
307,774	-5,83
307,982	7,5
308,19	52,35
308,398	40,31
308,605	47,88
308,813	45,15
309,021	42,19
309,229	9,7
309,436	51,48
309,644	-7,75
309,852	11,23
310,06	-3,48
310,267	29,73
310,475	24,23
310,683	3,53
310,89	10,37
311,098	-5,88
311,306	48,05
311,513	37,62
311,721	32,04
311,929	22,26
312,136	48,17
312,344	13,72
312,552	-0,5
312,759	51,26
312,967	17,68
313,174	10,55
313,382	13,37
313,589	19,8
313,797	0,76
314,005	31,26
314,212	26,09
314,42	53,07
314,627	44,19
314,835	26,09
315,042	29,65
315,25	70,47
315,457	41,73
315,665	78,63
315,872	11,78
316,08	7,74
316,287	44,27
316,495	-113,17
316,702	48,88
316,909	45,54
317,117	-13,71
317,324	38,85
317,532	13,36
317,739	67,57
317,946	38,72
318,154	23,24
318,361	66,67
318,569	34,42
318,776	59,5
318,983	74,58
319,191	45,62
319,398	25,54
319,605	47,32
319,813	2,06
320,02	82,09
320,227	17,36
320,434	2,21
320,642	41,2
320,849	34,44
321,056	26,58
321,264	29,3
321,471	41,21
321,678	9,58
321,885	61,85
322,092	8,18
322,3	32,14
322,507	50,76
322,714	30,42
322,921	38,74
323,128	69,05
323,336	41,94
323,543	14,65
323,75	26,99
323,957	26,39
324,164	15,2
324,371	35,86
324,578	77,96
324,786	2,85
324,993	47,76
325,2	36,39
325,407	84,9
325,614	33,07
325,821	-13,88
326,028	-24,76
326,235	29,44
326,442	3,59
326,649	67,24
326,856	27,9
327,063	85,15
327,27	25,85
327,477	68,28
327,684	74,44
327,891	79,16
328,098	28,18
328,305	32,64
328,512	77,44
328,719	103,78
328,926	222,87
329,133	615,9
329,34	1292,11
329,546	2859,85
329,753	4495,2
329,96	5409,52
330,167	5241,67
330,374	4822,67
330,581	3356,51
330,788	1513,18
330,995	621,45
331,201	304,25
331,408	167,98
331,615	117,76
331,822	87,07
332,029	62,4
332,235	43,78
332,442	42,53
332,649	57,11
332,856	56,16
333,062	39,23
333,269	38,19
333,476	45,7
333,683	41,87
333,889	27,55
334,096	42,13
334,303	22,57
334,509	52,29
334,716	37,07
334,923	40,82
335,129	57,11
335,336	18,81
335,543	43,64
335,749	47,83
335,956	17,49
336,163	79
336,369	6,84
336,576	35,98
336,782	36,42
336,989	62,37
337,196	42,08
337,402	69,87
337,609	43,84
337,815	60,19
338,022	12,15
338,228	15,28
338,435	-18,21
338,641	9,36
338,848	13,8
339,054	13,74
339,261	55,82
339,467	65,82
339,674	49,53
339,88	37,21
340,087	22,94
340,293	50,22
340,5	57,39
340,706	30,5
340,912	56,85
341,119	74,5
341,325	60,43
341,532	39,46
341,738	67,76
341,944	43,65
342,151	60,26
342,357	57,41
342,563	42,08
342,77	39,65
342,976	44,69
343,182	-11,36
343,389	61,3
343,595	45,45
343,801	67,41
344,007	23,38
344,214	63,63
344,42	52,77
344,626	53,12
344,832	54,6
345,039	20,39
345,245	56,97
345,451	80,55
345,657	52,07
345,864	61,52
346,07	72,56
346,276	50,41
346,482	28,4
346,688	31,93
346,894	83,76
347,1	52,27
347,307	44,31
347,513	20,2
347,719	33,95
347,925	13,75
348,131	74,36
348,337	-4,85
348,543	55,17
348,749	48,44
348,955	6,05
349,161	46,54
349,367	53,99
349,573	28,61
349,779	35,3
349,985	35,9
350,191	24,83
350,397	45,58
350,603	23,52
350,809	59,12
351,015	6,44
351,221	50,6
351,427	30,12
351,633	21,3
351,839	23,63
352,045	34,52
352,251	9,8
352,457	28,21
352,663	25,99
352,869	41,21
353,075	32,15
353,28	62,83
353,486	33,18
353,692	25,98
353,898	34,08
354,104	62,4
354,31	48,52
354,515	100,85
354,721	19,76
354,927	36,25
355,133	26,1
355,339	61,23
355,544	23,02
355,75	58,45
355,956	40,25
356,162	53,06
356,367	68,4
356,573	61,64
356,779	60,76
356,984	14,49
357,19	9,29
357,396	50,73
357,602	-7,88
357,807	67,66
358,013	67
358,218	61,72
358,424	84,88
358,63	102,27
358,835	85,81
359,041	81,38
359,247	57,75
359,452	75,27
359,658	74,5
359,863	32,22
360,069	47,53
360,274	22,51
360,48	20,15
360,685	45,18
360,891	18,23
361,097	46,66
361,302	50,35
361,508	14,81
361,713	52,6
361,918	27,35
362,124	65,38
362,329	58,29
362,535	18,81
362,74	76,72
362,946	28,51
363,151	49,07
363,357	42,76
363,562	68,26
363,767	76,88
363,973	18,95
364,178	61,25
364,383	84,61
364,589	52,88
364,794	67,2
365	22,32
365,205	37,79
365,41	67,49
365,615	46,98
365,821	62,7
366,026	12,76
366,231	36,47
366,437	44,87
366,642	59,64
366,847	12,49
367,052	77,49
367,258	89,31
367,463	69
367,668	60,4
367,873	4,95
368,078	20,79
368,284	80,63
368,489	71,21
368,694	31,43
368,899	26,21
369,104	42,85
369,309	35,37
369,515	72,03
369,72	5,86
369,925	66,17
370,13	24,37
370,335	12,95
370,54	45,21
370,745	45,76
370,95	28,7
371,155	10,81
371,36	40,33
371,565	35,15
371,77	57,82
371,975	64,09
372,18	16,68
372,385	42,22
372,59	20,75
372,795	47,76
373	33,89
373,205	31,08
373,41	34,55
373,615	61,85
373,82	74,85
374,025	52,27
374,23	92,19
374,435	22,26
374,64	30,74
374,845	30,2
375,05	54,07
375,254	44,77
375,459	56,85
375,664	65,98
375,869	47,37
376,074	46,98
376,279	70,25
376,483	57,63
376,688	54,96
376,893	22,53
377,098	69
377,303	47,21
377,507	48,19
377,712	-8,98
377,917	36,45
378,122	34,89
378,326	57
378,531	63,99
378,736	23,25
378,94	75,87
379,145	43,67
379,35	17,05
379,554	54,3
379,759	85,64
379,964	37,59
380,168	61,71
380,373	26,78
380,578	32,77
380,782	-25,17
380,987	47,95
381,191	43,92
381,396	40,71
381,601	33,87
381,805	36,17
382,01	-27,92
382,214	38,77
382,419	54,84
382,623	42,96
382,828	45,12
383,032	47,83
383,237	96,11
383,441	58,13
383,646	8,96
383,85	48,13
384,055	36,91
384,259	48,4
384,464	67,95
384,668	62,12
384,872	56,04
385,077	78,3
385,281	51,34
385,486	54,16
385,69	52,9
385,894	15,15
386,099	29,77
386,303	34,61
386,507	23,22
386,712	-5,61
386,916	50,63
387,12	58,48
387,325	15,5
387,529	34,3
387,733	32,39
387,937	50,33
388,142	63,79
388,346	80,6
388,55	11,74
388,754	36,5
388,959	62,62
389,163	60,4
389,367	43,8
389,571	40,68
389,775	10,41
389,98	26,1
390,184	54,32
390,388	28,8
390,592	41,59
390,796	31,63
391	46,1
391,204	66,59
391,409	57,23
391,613	58,04
391,817	74,14
392,021	16,84
392,225	67,25
392,429	75,93
392,633	77,48
392,837	72,03
393,041	50,7
393,245	58,38
393,449	61,16
393,653	49,25
393,857	30,74
394,061	67,55
394,265	60,7
394,469	76,17
394,673	57,53
394,877	46,46
395,081	44,49
395,285	4,74
395,489	32,91
395,693	29,66
395,896	47,84
396,1	21,9
396,304	11,99
396,508	58,65
396,712	37,71
396,916	43,1
397,12	37,21
397,323	-0,83
397,527	24,07
397,731	-23,95
397,935	8,85
398,139	51,66
398,342	8,29
398,546	10,33
398,75	30,7
398,954	23,03
399,157	5,95
399,361	-3,88
399,565	44,91
399,769	-29,08
399,972	-5,56
400,176	-3,07
400,38	13,89
400,583	14,54
400,787	16,32
400,991	-3,78
401,194	27,22
401,398	-11,11
401,601	9,11
401,805	1,67
402,009	-3,88
402,212	11,89
402,416	-61,45
402,619	28,56
402,823	-8,05
403,026	43,02
403,23	84,25
403,433	52,24
403,637	103,69
403,841	101,74
404,044	122,3
404,247	93,2
404,451	46,36
404,654	11,03
404,858	24,84
405,061	22,91
405,265	33,43
405,468	7,78
405,672	4,63
405,875	4,87
406,078	28,89
406,282	27,4
406,485	26,72
406,689	-17,58
406,892	-29,59
407,095	37,43
407,299	8,48
407,502	-18,84
407,705	17,11
407,909	16,86
408,112	7,55
408,315	22,01
408,518	-17,79
408,722	25,14
408,925	25,44
409,128	0,74
409,331	21,25
409,535	-21,91
409,738	-16,81
409,941	-27,52
410,144	1,47
410,347	-33,68
410,551	-31,59
410,754	-27,02
410,957	8,62
411,16	13,11
411,363	-20,97
411,566	0,02
411,769	-9,07
411,973	8,73
412,176	-32,7
412,379	-27,19
412,582	-27,25
412,785	-9,69
412,988	17,64
413,191	9,2
413,394	-1,54
413,597	7,8
413,8	29,66
414,003	-36,36
414,206	53,23
414,409	47,89
414,612	141,67
414,815	235,63
415,018	321,91
415,221	350,12
415,424	308,88
415,627	272
415,83	155,39
416,033	57,55
416,235	38,19
416,438	13,74
416,641	-29,16
416,844	7,04
417,047	53,2
417,25	62,78
417,453	60,67
417,655	88,71
417,858	89,15
418,061	162,17
418,264	136,39
418,467	214,52
418,669	246,17
418,872	297,73
419,075	414,24
419,278	407,29
419,48	380,73
419,683	352,14
419,886	235,82
420,089	120,01
420,291	24,29
420,494	39,71
420,697	10,33
420,899	-30,74
421,102	27,19
421,305	0,05
421,507	-16,64
421,71	-24,54
421,912	-1,26
422,115	14,07
422,318	8,25
422,52	-1,35
422,723	3,65
422,925	5,64
423,128	-29,95
423,33	34,85
423,533	8,52
423,735	13,17
423,938	21,94
424,14	16,12
424,343	-33,24
424,545	40,94
424,748	47,17
424,95	74,94
425,153	138,63
425,355	150,4
425,558	142,63
425,76	136,35
425,962	158,18
426,165	166,2
426,367	193,72
426,57	141,48
426,772	139,78
426,974	65,94
427,177	56,67
427,379	18,89
427,581	-18,83
427,784	10,19
427,986	36,82
428,188	-7,59
428,39	44,6
428,593	42,94
428,795	33,15
428,997	62,53
429,2	111,95
429,402	94,85
429,604	120,28
429,806	46,65
430,008	7,58
430,211	20,83
430,413	24,29
430,615	17,31
430,817	12,35
431,019	18,26
431,221	-4,25
431,423	30,92
431,626	4,08
431,828	23,47
432,03	61,96
432,232	72,69
432,434	94,98
432,636	86,94
432,838	130,39
433,04	74,53
433,242	77,05
433,444	35,93
433,646	27,81
433,848	54,16
434,05	17,03
434,252	20,67
434,454	9,81
434,656	8,32
434,858	3,02
435,06	13,58
435,262	-34,86
435,464	1,32
435,666	-48,51
435,868	-47,64
436,07	-37,04
436,271	-16,81
436,473	-2,82
436,675	-27,43
436,877	5,77
437,079	-10,81
437,281	36,96
437,482	-12,22
437,684	47,32
437,886	32,12
438,088	4,47
438,29	27,65
438,491	0,93
438,693	12,22
438,895	-8,24
439,097	-37,73
439,298	-5,67
439,5	3,04
439,702	15,75
439,903	-1,06
440,105	-16,29
440,307	-39,01
440,508	-21,83
440,71	17,36
440,912	-50,11
441,113	11,86
441,315	-27,21
441,517	-20,13
441,718	-33,59
441,92	-19,8
442,121	-33,56
442,323	-18,59
442,524	-3,84
442,726	-20,34
442,928	-13,45
443,129	-23,55
443,331	-35,65
443,532	-51,55
443,734	-16,54
443,935	-32,5
444,136	-7,15
444,338	-28,99
444,539	-44,52
444,741	-21,99
444,942	-6,44
445,144	-37,93
445,345	-46,54
445,546	-1,56
445,748	-35,54
445,949	-15,93
446,151	5,43
446,352	-9,7
446,553	-79,73
446,755	-38,52
446,956	-28,28
447,157	-24,21
447,359	-24,75
447,56	-36,75
447,761	-8,08
447,962	-11,48
448,164	9,12
448,365	0,98
448,566	-7,42
448,767	63,16
448,969	-13,75
449,17	13,85
449,371	16,67
449,572	-16,23
449,773	21,3
449,974	7,34
450,176	-8,7
450,377	-1,59
450,578	9,67
450,779	-6,54
450,98	35,59
451,181	-0,03
451,382	-7,39
451,583	-13,78
451,784	-0,79
451,986	-4,95
452,187	-26,88
452,388	-14,35
452,589	-32,15
452,79	-18,04
452,991	-1,51
453,192	-41,09
453,393	-0,87
453,594	2,74
453,795	81,73
453,995	194,51
454,196	251
454,397	309,37
454,598	352,5
454,799	327,16
455	167,74
455,201	119,96
455,402	-13,17
455,603	7,62
455,804	-8,84
456,004	2,58
456,205	-12,19
456,406	-13,14
456,607	-27,21
456,808	-70,97
457,008	3,8
457,209	8,43
457,41	-19,79
457,611	-16,48
457,811	-81,9
458,012	-17,41
458,213	17,34
458,414	-13,06
458,614	7,78
458,815	29,14
459,016	-49,4
459,216	-25,43
459,417	4,69
459,618	-23,95
459,818	-37,75
460,019	4,08
460,22	11,56
460,42	-30,55
460,621	-43,72
460,821	-44,74
461,022	-65,83
461,223	-47,81
461,423	-5,67
461,624	-22,94
461,824	10,81
462,025	6,65
462,225	7,67
462,426	-26,15
462,626	5,81
462,827	-22,02
463,027	-34,22
463,228	-33,21
463,428	-25,43
463,628	-42,71
463,829	-64,04
464,029	-1,86
464,23	-5,89
464,43	-35,95
464,63	23,84
464,831	46,58
465,031	31,37
465,231	108,05
465,432	148,1
465,632	113,47
465,832	225,04
466,033	202,99
466,233	160,53
466,433	47,89
466,634	42,9
466,834	-12,97
467,034	6,57
467,234	-58,76
467,435	-28,14
467,635	-30,96
467,835	0,49
468,035	-37,76
468,235	-21,98
468,436	-41,29
468,636	-22,86
468,836	19,69
469,036	-21,55
469,236	-3,45
469,436	3,91
469,636	-63,74
469,836	-18,09
470,037	-10,4
470,237	-28,92
470,437	-87,05
470,637	-12,51
470,837	-19,12
471,037	-44,79
471,237	-29,16
471,437	-56,73
471,637	-42,27
471,837	-56,4
472,037	-35
472,237	-65,02
472,437	-31,26
472,637	-86,19
472,837	-29,18
473,036	-24,53
473,236	-81,4
473,436	-17,66
473,636	1,92
473,836	35,95
474,036	18,95
474,236	72,77
474,436	15,01
474,635	10,82
474,835	-29,92
475,035	-67,09
475,235	-41,51
475,435	-66,94
475,634	-37,15
475,834	-54,87
476,034	-67,63
476,234	-30,69
476,433	-47,59
476,633	-115,69
476,833	-78,78
477,033	-59,78
477,232	-26,04
477,432	-85,98
477,632	-140,14
477,831	-71,02
478,031	-52,76
478,231	-71,38
478,43	-63,42
478,63	-75,65
478,829	-12,95
479,029	-67,79
479,229	-58,76
479,428	-44,08
479,628	-80,03
479,827	-81,07
480,027	-52,62
480,226	-131,57
480,426	-85,05
480,625	-107,2
480,825	-83,78
481,024	-94,03
481,224	-131,61
481,423	-78,17
481,623	-131,67
481,822	-57,2
482,021	-110,37
482,221	-94,55
482,42	-125,49
482,62	-99,85
482,819	-72,7
483,018	-97,44
483,218	-59,01
483,417	-108,21
483,616	-62,08
483,816	-124,94
484,015	-110,35
484,214	-96,9
484,414	-89,34
484,613	-115,79
484,812	-63,25
485,011	-14,87
485,211	-93,4
485,41	-101,56
485,609	-44,79
485,808	-85,75
486,008	-56,68
486,207	-74,92
486,406	-97,47
486,605	-66,01
486,804	-73,85
487,003	-60,53
487,203	-34,94
487,402	-64,5
487,601	-54,03
487,8	-80,31
487,999	-50,52
488,198	-74,85
488,397	-77
488,596	-87,91
488,795	-95,29
488,994	-123,84
489,193	-82,49
489,392	-134
489,591	-106,35
489,79	-88,66
489,989	-98,81
490,188	-115,68
490,387	-150,19
490,586	-84,2
490,785	-100,81
490,984	-112,39
491,183	-102,41
491,382	-84,55
491,581	-0,36
491,779	97,67
491,978	278,35
492,177	312,77
492,376	344,96
492,575	350,66
492,774	283
492,972	157,79
493,171	26,51
493,37	-4,68
493,569	-119,96
493,768	-125,34
493,966	-80,85
494,165	-127,04
494,364	-149,93
494,563	-107,82
494,761	-111,99
494,96	-132,39
495,159	-105,33
495,357	-74,26
495,556	-108,31
495,755	-41,72
495,953	48,35
496,152	376,98
496,35	902,49
496,549	1553,59
496,748	2333,85
496,946	2867,94
497,145	2944,16
497,343	2734,98
497,542	2284,9
497,74	1505,37
497,939	850,14
498,137	485,59
498,336	234,48
498,534	76,28
498,733	14,89
498,931	-3,15
499,13	-35,92
499,328	-59,61
499,527	-117,08
499,725	-48,06
499,924	-60,71
500,122	-52,9
500,32	-106,76
500,519	-119,6
500,717	-96
500,915	-57,97
501,114	-87,57
501,312	-123,51
501,51	-60,08
501,709	-99,45
501,907	-104,35
502,105	-56,98
502,304	-97,7
502,502	-86,61
502,7	-87,61
502,898	-74,15
503,097	-89,1
503,295	-69,11
503,493	-110,16
503,691	-115,62
503,889	-60,57
504,088	-41,02
504,286	-100,59
504,484	-101,14
504,682	-100,6
504,88	-92,46
505,078	-95,73
505,276	-94,05
505,474	-123,08
505,672	-82,44
505,871	-108,34
506,069	-124,3
506,267	-86,66
506,465	-96,52
506,663	-66,37
506,861	-87,05
507,059	-120,09
507,257	-105,01
507,455	-75,19
507,653	-107,6
507,851	-97,53
508,049	-68,99
508,246	-105,99
508,444	-126,72
508,642	-86,72
508,84	-105,31
509,038	-78,47
509,236	-113,47
509,434	-65,61
509,632	-139,23
509,829	-103,56
510,027	-78,83
510,225	-105,22
510,423	-65,91
510,621	-72,37
510,818	-113,87
511,016	-84,99
511,214	-94,22
511,412	-134,38
511,609	-65,76
511,807	-86,8
512,005	-76,22
512,203	-110,34
512,4	-71,92
512,598	-67,8
512,796	-32,26
512,993	6,46
513,191	110,95
513,389	215,98
513,586	377,27
513,784	610,78
513,981	684,64
514,179	713,47
514,377	639,71
514,574	479,65
514,772	351,01
514,969	177,72
515,167	120,53
515,364	16,42
515,562	13,86
515,759	-61,47
515,957	-5,42
516,154	-27,13
516,352	-92
516,549	-60,75
516,746	-34,71
516,944	-53,07
517,141	-38,72
517,339	-16,23
517,536	-23,68
517,733	-35,21
517,931	1,26
518,128	-38,55
518,325	-55,99
518,523	-77,6
518,72	-79,34
518,917	-99,26
519,115	-81,18
519,312	-82,04
519,509	-113,63
519,707	-93,23
519,904	-48,41
520,101	-79,27
520,298	-79,1
520,495	-79,63
520,693	-22,86
520,89	-88,55
521,087	-45,37
521,284	-141,77
521,481	-49,78
521,678	-88,96
521,876	-67,22
522,073	-98,41
522,27	-95,72
522,467	-58,95
522,664	-84,12
522,861	-72,34
523,058	-97,66
523,255	-67
523,452	-83,24
523,649	-79,82
523,846	-57,31
524,043	-65,16
524,24	-81,37
524,437	-64,38
524,634	-91,53
524,831	-64,42
525,028	-69,13
525,225	-29,13
525,422	-62,73
525,619	-50,47
525,816	-58,4
526,013	-94,27
526,209	-100,32
526,406	-63,16
526,603	-62,7
526,8	-36,72
526,997	-63,96
527,194	-65,41
527,39	-82,3
527,587	-57,48
527,784	-69,95
527,981	-75,74
528,177	-83,68
528,374	-82,16
528,571	-122,47
528,768	-49,15
528,964	-65,85
529,161	-52,35
529,358	-95,07
529,554	-92,21
529,751	-58,76
529,948	-55,01
530,144	-83,92
530,341	-38,74
530,537	-76,09
530,734	-70,59
530,931	-82,97
531,127	-64,94
531,324	-56,56
531,52	-52,21
531,717	-31,98
531,913	-86,72
532,11	-30,18
532,306	-53,74
532,503	-11,75
532,699	-60,95
532,896	-133,97
533,092	-69,46
533,289	-30,12
533,485	-438,58
533,682	-79,89
533,878	-92,8
534,074	-65,91
534,271	-111,99
534,467	-120,25
534,664	-80,23
534,86	-45,72
535,056	-59,14
535,253	-56,45
535,449	-46,43
535,645	-44,3
535,841	-22,56
536,038	-57,3
536,234	-41,49
536,43	-72,7
536,626	-67,77
536,823	-44,55
537,019	-46,03
537,215	-49,56
537,411	-76,2
537,607	-51,26
537,804	-44,02
538	-34,12
538,196	-66,69
538,392	-24,04
538,588	-83,64
538,784	-1,75
538,98	-13,93
539,176	-37,73
539,373	-44,08
539,569	-47,23
539,765	-5,75
539,961	-28,69
540,157	-56,92
540,353	16,76
540,549	-59,08
540,745	-68,28
540,941	-1,48
541,137	-3,31
541,333	-21,39
541,528	-23,93
541,724	-21,47
541,92	-28,91
542,116	-1,83
542,312	21,69
542,508	-7,85
542,704	-8,11
542,9	-20,04
543,096	8,32
543,291	-19,82
543,487	1,02
543,683	-18,62
543,879	-28,25
544,075	-33,1
544,27	12,11
544,466	15,8
544,662	-12,4
544,858	-5,58
545,053	-26,39
545,249	-29,52
545,445	-9,53
545,64	-1,72
545,836	9,36
546,032	-9,53
546,227	4,1
546,423	-18,68
546,619	12,3
546,814	20,72
547,01	41,78
547,205	19,01
547,401	22,76
547,597	-11,36
547,792	49,51
547,988	15,3
548,183	85,9
548,379	34,22
548,574	55,33
548,77	81,02
548,965	47,43
549,161	94,44
549,356	68,78
549,552	10,95
549,747	32,7
549,942	8,84
550,138	50,43
550,333	54,76
550,529	39,19
550,724	89,29
550,919	52,49
551,115	47,78
551,31	59,5
551,505	73,36
551,701	67,95
551,896	106,04
552,091	75,33
552,287	79,73
552,482	95,12
552,677	93,42
552,872	121,93
553,067	79,89
553,263	86,85
553,458	105,83
553,653	74,1
553,848	101,86
554,043	117,29
554,239	151,99
554,434	157,39
554,629	183,66
554,824	174,96
555,019	153,68
555,214	159,57
555,409	148,65
555,604	133,57
555,799	156,62
555,994	142,76
556,189	167,79
556,384	132,17
556,579	135,83
556,774	147,17
556,969	164,66
557,164	157,38
557,359	128,34
557,554	147,39
557,749	204,18
557,944	178,83
558,139	190,24
558,334	220,33
558,529	186,41
558,724	222,52
558,918	223,53
559,113	248,69
559,308	244,73
559,503	291,88
559,698	318,62
559,893	294,86
560,087	256,23
560,282	297,43
560,477	215,76
560,672	282,46
560,866	298,67
561,061	257,13
561,256	275,06
561,45	261,73
561,645	265,01
561,84	273,45
562,034	273,4
562,229	281,34
562,424	310,03
562,618	297,3
562,813	332,57
563,008	398,03
563,202	400,72
563,397	457,91
563,591	482,96
563,786	556,72
563,98	639,66
564,175	653,77
564,369	716,03
564,564	714,08
564,758	782,48
564,953	857,99
565,147	884,75
565,342	911,83
565,536	914,12
565,731	926,12
565,925	1246,52
566,119	2403,62
566,314	4723,56
566,508	8629,04
566,703	14067,7
566,897	20330,26
567,091	27187,98
567,286	31570,7
567,48	31647,59
567,674	29243,25
567,868	25647,25
568,063	18862,42
568,257	12819,15
568,451	9018,03
568,646	6253,52
568,84	4209,1
569,034	2867,64
569,228	2055,29
569,422	1570,63
569,616	1318,88
569,811	1200,35
570,005	1026,39
570,199	968,67
570,393	927,51
570,587	822,87
570,781	812,82
570,975	776,05
571,169	744,91
571,364	695,24
571,558	711,42
571,752	726,59
571,946	712,25
572,14	737,79
572,334	755,75
572,528	771,94
572,722	737,3
572,916	793,46
573,109	761,01
573,303	781,47
573,497	779,22
573,691	766,46
573,885	782,99
574,079	809,14
574,273	813,8
574,467	823,2
574,661	842,91
574,854	846,35
575,048	856,7
575,242	898,08
575,436	900,32
575,63	949,9
575,823	923,84
576,017	976,96
576,211	971,32
576,405	986,29
576,598	998,72
576,792	1007,49
576,986	1020,61
577,18	1043,19
577,373	1104,11
577,567	1116,02
577,761	1129,28
577,954	1179,69
578,148	1200,05
578,341	1209,17
578,535	1208,98
578,729	1261,41
578,922	1264,27
579,116	1311,42
579,309	1342,48
579,503	1427,58
579,696	1438,76
579,89	1459,62
580,083	1584,48
580,277	1797,23
580,47	2362,69
580,664	3480,7
580,857	4766,8
581,051	5819,93
581,244	7209,29
581,437	8479,57
581,631	8558,7
581,824	8354,81
582,018	8229,45
582,211	7762,23
582,404	6614,94
582,598	5717,65
582,791	5239,43
582,984	4772,26
583,178	4203,58
583,371	3997,34
583,564	3891,57
583,757	4009,97
583,951	4105,23
584,144	4334,04
584,337	4545,34
584,53	4898,43
584,723	5284,09
584,917	5783,21
585,11	6368,92
585,303	7158,25
585,496	7987,77
585,689	9378,28
585,882	11804,29
586,075	63028,85
586,268	62762,19
586,462	64276,1
586,655	64297,19
586,848	64239,03
587,041	64282,04
587,234	64267,7
587,427	64219,57
587,62	64276,92
587,813	64279,37
588,006	64243,54
588,199	64256,85
588,392	64256,85
588,585	64240,67
588,777	64218,14
588,97	64237,39
589,163	64209,95
589,356	64210,97
589,549	64229,81
589,742	64286,95
589,935	64322,18
590,128	64259,51
590,32	64228,79
590,513	64258,49
590,706	64287,16
590,899	64275,69
591,092	64223,26
591,284	64261,56
591,477	64299,44
591,67	64246,61
591,863	64257,87
592,055	64343,07
592,248	64208,31
592,441	64248,04
592,633	64286,34
592,826	64262,99
593,019	64267,09
593,211	64237,39
593,404	64319,11
593,596	64249,88
593,789	64278,56
593,982	64253,57
594,174	64295,35
594,367	64269,95
594,559	64238,01
594,752	64308,46
594,944	64271,18
595,137	64257,67
595,329	64259,92
595,522	64247,43
595,714	64268,73
595,907	64270,98
596,099	64273,44
596,292	64274,46
596,484	64276,71
596,676	64315,83
596,869	64273,44
597,061	64207,08
597,253	64309,07
597,446	64291,87
597,638	64278,56
597,83	64259,51
598,023	64217,94
598,215	64304,97
598,407	64291,05
598,6	64337,54
598,792	64255,21
598,984	64282,04
599,176	64263,61
599,369	64253,77
599,561	64212
599,753	64308,25
599,945	64240,26
600,137	64291,05
600,329	64257,46
600,522	64280,4
600,714	64315,01
600,906	64334,26
601,098	64252,34
601,29	64279,17
601,482	64284,9
601,674	64278,15
601,866	64253,98
602,058	64293,1
602,25	64257,67
602,442	64227,36
602,634	64279,17
602,826	64320,74
603,018	64309,89
603,21	64251,11
603,402	64272,62
603,594	64290,84
603,786	64281,63
603,978	64234,11
604,17	64301,49
604,362	64247,63
604,554	64266,88
604,745	64249,88
604,937	64283,06
605,129	64222,44
605,321	64318,08
605,513	64301,29
605,704	64306,61
605,896	64268,32
606,088	64287,16
606,28	64270,57
606,471	64253,16
606,663	64303,75
606,855	64338,36
607,047	64251,32
607,238	64294,53
607,43	64289,2
607,622	64257,05
607,813	64263,81
608,005	64298,42
608,197	64241,08
608,388	64299,24
608,58	64315,42
608,771	64248,45
608,963	64258,28
609,154	64279,37
609,346	64314,8
609,537	64273,85
609,729	64338,97
609,921	64258,28
610,112	64291,66
610,303	64293,92
610,495	64302,93
610,686	64270,16
610,878	64324,84
611,069	64350,03
611,261	64274,25
611,452	64322,38
611,643	64318,08
611,835	64312,96
612,026	64268,32
612,217	64288,18
612,409	64312,76
612,6	64285,52
612,791	64280,81
612,983	64276,51
613,174	64225,51
613,365	64297,4
613,557	64294,53
613,748	64313,78
613,939	64288,39
614,13	64326,27
614,321	64298,63
614,513	64256,85
614,704	64278,97
614,895	64313,78
615,086	64345,52
615,277	64328,73
615,468	64325,04
615,659	64260,53
615,851	64326,68
616,042	64300,67
616,233	64324,84
616,424	64326,89
616,615	64279,78
616,806	64308,46
616,997	64380,34
617,188	64352,9
617,379	64312,76
617,57	64292,89
617,761	64291,87
617,952	64276,51
618,143	64242,51
618,334	64329,35
618,524	64302,72
618,715	64334,46
618,906	64347,78
619,097	64350,44
619,288	64345,52
619,479	64283,88
619,67	64302,72
619,86	64333,44
620,051	64321,56
620,242	64292,28
620,433	64325,66
620,624	62978,57
620,814	60058,65
621,005	13608,86
621,196	8357,04
621,386	517,65
621,577	531,54
621,768	474,06
621,958	538,66
622,149	516,59
622,34	517,69
622,53	500,9
622,721	533,75
622,912	475,49
623,102	483,67
623,293	488,76
623,483	487,24
623,674	492,95
623,864	498,76
624,055	509,77
624,245	465,74
624,436	505,03
624,626	492,21
624,817	476,23
625,007	472,61
625,198	486,72
625,388	465,58
625,579	406,82
625,769	451,64
625,959	452,77
626,15	491,1
626,34	469,84
626,531	405,72
626,721	421,33
626,911	484,86
627,101	443,92
627,292	425,58
627,482	448,22
627,672	451,5
627,863	450,99
628,053	383,79
628,243	433,48
628,433	449,12
628,623	399,43
628,814	430,69
629,004	435,82
629,194	457,34
629,384	442,19
629,574	419,33
629,764	371,15
629,955	393,62
630,145	402,58
630,335	407,17
630,525	379,9
630,715	389,21
630,905	367,2
631,095	377,49
631,285	375
631,475	373,41
631,665	315,39
631,855	398,82
632,045	380,72
632,235	382,61
632,425	382,15
632,615	396,61
632,805	360,96
632,994	359,07
633,184	352,19
633,374	334,35
633,564	355,39
633,754	336,37
633,944	331,03
634,133	357,84
634,323	327,55
634,513	330,67
634,703	300,17
634,893	343,3
635,082	339,66
635,272	363,99
635,462	342,75
635,651	302,04
635,841	349,57
636,031	369,77
636,221	341,22
636,41	363,67
636,6	362,16
636,789	315,2
636,979	337,36
637,169	361,32
637,358	350,91
637,548	338,56
637,737	312,98
637,927	318,88
638,116	315,25
638,306	303,95
638,495	298,11
638,685	295,29
638,874	307,84
639,064	288,56
639,253	301
639,443	330,09
639,632	380,17
639,822	396
640,011	394,41
640,2	389
640,39	405,26
640,579	363,26
640,768	378,42
640,958	331,41
641,147	339,02
641,336	303,78
641,526	275,67
641,715	289,06
641,904	247,27
642,093	311,12
642,283	241,25
642,472	232,02
642,661	275,59
642,85	236,18
643,039	285,8
643,228	193,09
643,418	245,41
643,607	250,09
643,796	234,29
643,985	261,49
644,174	238,35
644,363	231,17
644,552	270,87
644,741	280,02
644,93	271,84
645,119	216,03
645,308	259,65
645,497	239,45
645,686	231,96
645,875	279,64
646,064	241,57
646,253	244,17
646,442	250,7
646,631	267,75
646,82	260,83
647,009	239,12
647,198	220
647,387	247,39
647,575	271,51
647,764	25,54
647,953	288,91
648,142	313,7
648,331	287,66
648,519	288,56
648,708	257,35
648,897	254,33
649,086	249,43
649,274	257,43
649,463	258,47
649,652	192
649,84	239,68
650,029	184
650,218	221,61
650,406	225,32
650,595	217,54
650,784	176,68
650,972	203,96
651,161	201,44
651,349	221,39
651,538	210,39
651,726	178,43
651,915	186,6
652,104	202,64
652,292	225,51
652,481	202,28
652,669	181,28
652,857	194,29
653,046	169,46
653,234	204,09
653,423	160,69
653,611	190,73
653,8	194,57
653,988	180,76
654,176	182,69
654,365	220,31
654,553	176,49
654,741	200,43
654,93	253,57
655,118	228,58
655,306	210,69
655,494	246,84
655,683	198,54
655,871	179,17
656,059	165,92
656,247	184,62
656,436	176,63
656,624	144,81
656,812	159,33
657	167,29
657,188	141,75
657,376	173,6
657,564	170,61
657,753	167,02
657,941	165,55
658,129	147,97
658,317	159,88
658,505	208,53
658,693	171,1
658,881	182,03
659,069	177,34
659,257	167,73
659,445	157,99
659,633	167,27
659,821	167,33
660,009	120,83
660,197	144,63
660,384	136,35
660,572	88,87
660,76	144,79
660,948	123,49
661,136	151,08
661,324	127,23
661,512	110,45
661,699	170,61
661,887	111,69
662,075	118,69
662,263	122,26
662,451	142,7
662,638	132,99
662,826	108,09
663,014	100,38
663,201	87,32
663,389	133,67
663,577	123,24
663,764	91,99
663,952	148,27
664,14	124,23
664,327	136,63
664,515	106,29
664,702	109,98
664,89	109,57
665,078	156,35
665,265	143,88
665,453	137,58
665,64	192,73
665,828	211,48
666,015	213,29
666,203	242,97
666,39	239,38
666,578	245,49
666,765	208,47
666,952	131,2
667,14	139,77
667,327	137,23
667,515	133,56
667,702	121,95
667,889	115
668,077	99,89
668,264	71,79
668,451	85,13
668,638	104,24
668,826	89,45
669,013	90,24
669,2	81,4
669,388	59,23
669,575	79,59
669,762	120,86
669,949	79,4
670,136	-222,02
670,323	62,68
670,511	107,05
670,698	98,38
670,885	69,76
671,072	68,18
671,259	59,08
671,446	89,81
671,633	84,5
671,82	98,54
672,007	95,75
672,194	74,83
672,381	79,51
672,568	55,09
672,755	89,37
672,942	74,04
673,129	140,22
673,316	206,56
673,503	212,04
673,69	259,89
673,877	251,98
674,064	247,03
674,251	222,63
674,437	179,13
674,624	112,56
674,811	98,54
674,998	122,44
675,185	97,67
675,372	63,2
675,558	69,28
675,745	56,63
675,932	76,26
676,119	93,75
676,305	39,32
676,492	47,26
676,679	64,72
676,865	14,37
677,052	41,64
677,239	63,52
677,425	32,12
677,612	-3,89
677,798	37,84
677,985	34,74
678,172	31,22
678,358	29,4
678,545	43,15
678,731	57,12
678,918	59,75
679,104	40,09
679,291	-80,97
679,477	37,15
679,664	51,62
679,85	43,39
680,036	-1,37
680,223	61,2
680,409	21,9
680,596	50,74
680,782	26,75
680,968	22,13
681,155	51,18
681,341	18,72
681,527	9,55
681,714	17,58
681,9	66,2
682,086	26,58
682,272	74,33
682,459	41,2
682,645	4,43
682,831	9,47
683,017	-20,27
683,204	15,01
683,39	41,87
683,576	-1,26
683,762	30,61
683,948	27,93
684,134	84,41
684,32	41,79
684,506	13,31
684,693	20,34
684,879	126,74
685,065	117,63
685,251	195,75
685,437	226,03
685,623	225,12
685,809	221,98
685,995	167,43
686,181	167,6
686,366	109,46
686,552	120,55
686,738	119,73
686,924	75,32
687,11	86,63
687,296	38,45
687,482	34,96
687,668	89,24
687,853	78,15
688,039	59,86
688,225	56,89
688,411	54,96
688,597	-6,35
688,782	40,93
688,968	61,41
689,154	35,68
689,34	11,26
689,525	4,32
689,711	26,7
689,897	-3,69
690,082	33,56
690,268	13,75
690,454	41,64
690,639	23,25
690,825	57,53
691,01	30,94
691,196	10,55
691,381	62,24
691,567	81,46
691,753	76,74
691,938	95,94
692,124	120,34
692,309	126,39
692,494	112,75
692,68	118,14
692,865	86,06
693,051	60,7
693,236	43,46
693,422	35,1
693,607	83,87
693,792	157,24
693,978	563,4
694,163	2121,95
694,348	5137,64
694,534	9125,01
694,719	12964,18
694,904	14895,79
695,089	15624,99
695,275	14363,63
695,46	11435,38
695,645	7786,58
695,83	5552,89
696,016	4128,04
696,201	2926,37
696,386	2006,05
696,571	1316,26
696,756	871,99
696,941	587,96
697,126	452,55
697,311	347,68
697,497	246,89
697,682	246,8
697,867	170,78
698,052	157,73
698,237	114,53
698,422	119,41
698,607	87,37
698,792	72,84
698,977	45,65
699,162	24,84
699,347	-4,28
699,531	48,77
699,716	34,61
699,901	55,8
700,086	-3,43
700,271	24,69
700,456	11,64
700,641	39,04
700,825	111,74
701,01	81,93
701,195	134,28
701,38	169,82
701,565	147,55
701,749	144,24
701,934	132,46
702,119	49,78
702,303	73,4
702,488	62,79
702,673	13,12
702,857	15,39
703,042	21,74
703,227	25,63
703,411	53,18
703,596	11,09
703,78	42,55
703,965	93,43
704,15	359,01
704,334	1256,63
704,519	3029,32
704,703	5342,58
704,888	7457,62
705,072	8686,74
705,257	8979,89
705,441	8265,02
705,625	6423,86
705,81	4420,86
705,994	3163,01
706,179	2307,71
706,363	1681,07
706,547	1169,12
706,732	695,79
706,916	516,37
707,1	387,93
707,285	273,69
707,469	172,9
707,653	130,03
707,837	162,01
708,022	85,81
708,206	58,97
708,39	103,41
708,574	59,2
708,759	32,7
708,943	27,1
709,127	40,05
709,311	40,42
709,495	30,15
709,679	27,29
709,863	-3,53
710,047	14,57
710,231	16,02
710,415	58,71
710,6	2,06
710,784	23,71
710,968	17,91
711,152	12,87
711,336	37,84
711,519	-9,53
711,703	44,24
711,887	20,53
712,071	42,6
712,255	113,9
712,439	228,93
712,623	483,38
712,807	702,91
712,991	853,22
713,174	946,48
713,358	917,99
713,542	742,69
713,726	525,65
713,91	346,67
714,093	263,09
714,277	218,12
714,461	146,32
714,645	146,34
714,828	101,15
715,012	65,28
715,196	70,75
715,379	5,15
715,563	22,48
715,747	17,99
715,93	47,62
716,114	53,33
716,297	45,97
716,481	52,7
716,664	42,01
716,848	47,8
717,031	45,97
717,215	85,37
717,398	27,99
717,582	34,42
717,765	6,07
717,949	49,47
718,132	29,18
718,316	62,16
718,499	55,28
718,682	23,66
718,866	75,38
719,049	49,23
719,233	84,85
719,416	50,02
719,599	23,39
719,782	59,64
719,966	52,92
720,149	42,79
720,332	9
720,515	37,76
720,699	13,93
720,882	20,73
721,065	39,73
721,248	-8,35
721,431	2,54
721,615	47,4
721,798	-6,27
721,981	24,5
722,164	19,99
722,347	1,48
722,53	-29,74
722,713	40,41
722,896	19,05
723,079	42,49
723,262	-3,32
723,445	6,84
723,628	42,98
723,811	35,84
723,994	0,25
724,177	41,4
724,36	37,41
724,543	88,49
724,726	187,91
724,909	547,72
725,091	1266,23
725,274	2138,41
725,457	2809,84
725,64	3262,71
725,823	3354,4
726,006	3064,66
726,188	2366,02
726,371	1577,74
726,554	1159,56
726,737	854,84
726,919	625,18
727,102	431,92
727,285	319,91
727,467	207,07
727,65	144,98
727,833	116,15
728,015	73,35
728,198	59,69
728,38	49,86
728,563	48,44
728,746	43,26
728,928	41,46
729,111	74,8
729,293	55,06
729,476	54,57
729,658	77,19
729,841	73
730,023	12,11
730,205	69,43
730,388	22,65
730,57	45,02
730,753	31,95
730,935	18,45
731,117	-14,68
731,3	56,65
731,482	41,27
731,664	30,04
731,847	55,36
732,029	22,2
732,211	15,01
732,394	76,59
732,576	44,65
732,758	4,65
732,94	48,8
733,122	48,08
733,305	42,57
733,487	87,48
733,669	92,98
733,851	104,67
734,033	94,4
734,215	40,99
734,397	48,3
734,58	42,93
734,762	83,79
734,944	68,54
735,126	168,97
735,308	174,58
735,49	277,5
735,672	401,67
735,854	1134,78
736,036	3156,03
736,218	6505,99
736,399	10463,99
736,581	13730,76
736,763	15275,14
736,945	15470,78
737,127	13718,16
737,309	10238,13
737,491	6978,3
737,672	5140,05
737,854	3785,32
738,036	2705,38
738,218	1831,15
738,4	1302,18
738,581	860,32
738,763	614,19
738,945	410,6
739,127	265,89
739,308	198,37
739,49	138,44
739,672	92,52
739,853	49,83
740,035	71,84
740,216	35,56
740,398	14,89
740,58	34,23
740,761	31,52
740,943	38,6
741,124	56,19
741,306	60,75
741,487	57,04
741,669	68,84
741,85	113,85
742,032	64,64
742,213	67,91
742,394	61,45
742,576	41,12
742,757	17,88
742,939	23,43
743,12	30,74
743,301	36,74
743,483	47,61
743,664	67,35
743,845	29,43
744,027	42,2
744,208	37,65
744,389	31,16
744,57	81,05
744,752	29,81
744,933	56,18
745,114	84,6
745,295	72,55
745,476	54,46
745,657	81,93
745,839	99,07
746,02	45,98
746,201	40,46
746,382	56,18
746,563	15,36
746,744	67,27
746,925	81,37
747,106	61,41
747,287	58,19
747,468	80,34
747,649	226,71
747,83	844,94
748,011	2514,95
748,192	5396,89
748,373	8696,9
748,554	11376,21
748,735	12751,8
748,915	13568,93
749,096	13962,91
749,277	14171,55
749,458	14743,04
749,639	15913,28
749,82	15929,81
750	15060,51
750,181	12873,15
750,362	9603,41
750,543	6319,83
750,723	4514,59
750,904	3250,68
751,085	2280,24
751,265	1607,92
751,446	1065,1
751,627	685,08
751,807	412,7
751,988	272,49
752,169	181,72
752,349	138,69
752,53	98,43
752,71	104,9
752,891	58,56
753,071	57,22
753,252	92,3
753,432	66,87
753,613	45,5
753,793	16,32
753,974	30,34
754,154	18,83
754,334	25,11
754,515	47,92
754,695	40,39
754,876	14,35
755,056	5,97
755,236	48,21
755,417	41,45
755,597	1,65
755,777	50,73
755,957	24,1
756,138	66,67
756,318	38,71
756,498	59,33
756,678	87,5
756,859	72,94
757,039	108,78
757,219	112,75
757,399	137,47
757,579	128,38
757,759	167,57
757,939	162,18
758,119	104,15
758,3	76,39
758,48	87,98
758,66	127,78
758,84	131,5
759,02	87,07
759,2	128,94
759,38	131,26
759,56	103,11
759,74	156,2
759,919	163,96
760,099	142,87
760,279	183,21
760,459	253,21
760,639	505,3
760,819	1734,55
760,999	6702,99
761,178	19447,4
761,358	38042,85
761,538	56378,8
761,718	61734,96
761,898	62554,34
762,077	63470,08
762,257	63696,59
762,437	59180,94
762,616	45473,18
762,796	30576,88
762,976	16343,33
763,155	11036,83
763,335	6943,13
763,515	4364,54
763,694	2791,74
763,874	2456
764,053	4102,38
764,233	8103,62
764,413	13431,9
764,592	18555,07
764,772	21242,54
764,951	22433,8
765,131	20869,7
765,31	16875,72
765,489	11878,14
765,669	8194,55
765,848	5972,49
766,028	3999,78
766,207	2666,28
766,386	1673,35
766,566	1079,55
766,745	678,96
766,924	471,1
767,104	411,42
767,283	764,33
767,462	1971,26
767,642	4389,92
767,821	7348,81
768	10203,64
768,179	11800,76
768,358	12456,08
768,538	11473,27
768,717	9262,74
768,896	6390,07
769,075	4384,1
769,254	3201,24
769,433	2107,06
769,612	1561,64
769,791	1911,05
769,97	4233,81
770,149	8966,86
770,328	15167,92
770,507	21074,02
770,686	24481,51
770,865	25782,95
771,044	24108,11
771,223	19183,39
771,402	12945,86
771,581	8864,52
771,76	6191,14
771,939	3867,65
772,118	2538,41
772,297	1569,82
772,475	956,72
772,654	581,18
772,833	374,04
773,012	252,17
773,191	196,65
773,369	127,53
773,548	82,36
773,727	159,13
773,906	59,09
774,084	78,74
774,263	84,8
774,442	47,78
774,62	77,59
774,799	68,06
774,977	41,92
775,156	41,18
775,335	41,18
775,513	69
775,692	77,21
775,87	-19,53
776,049	82,12
776,227	31,1
776,406	19,38
776,584	51,36
776,763	40,96
776,941	68,5
777,119	78,12
777,298	63,41
777,476	9,58
777,655	45,35
777,833	85,56
778,011	101,12
778,19	108,59
778,368	83,75
778,546	84,34
778,725	50,41
778,903	86,69
779,081	66,42
779,259	46,63
779,437	63,16
779,616	39,46
779,794	47,62
779,972	-1,13
780,15	35,52
780,328	50,52
780,506	32,26
780,685	60,95
780,863	52,33
781,041	55,01
781,219	21,55
781,397	-0,33
781,575	60,23
781,753	45,92
781,931	67,06
782,109	34,2
782,287	41,16
782,465	19,19
782,643	29,13
782,82	43,68
782,998	-16,86
783,176	-0,61
783,354	39,9
783,532	32,26
783,71	46,33
783,888	33,33
784,065	53,22
784,243	42,8
784,421	52,7
784,599	20,86
784,776	46,24
784,954	50,41
785,132	47,43
785,31	66,34
785,487	31,68
785,665	56,95
785,842	26,56
786,02	-31,57
786,198	44,96
786,375	44,66
786,553	9,18
786,73	59,39
786,908	50,77
787,085	52,43
787,263	62,2
787,44	56,73
787,618	40,53
787,795	88,76
787,973	75,66
788,15	64,27
788,328	48,87
788,505	34,09
788,682	60,38
788,86	77,62
789,037	69,08
789,215	64,78
789,392	73,73
789,569	37,43
789,746	24,73
789,924	64,34
790,101	53,17
790,278	40,49
790,455	67,55
790,633	32
790,81	34
790,987	91,13
791,164	71,44
791,341	67,55
791,518	84,44
791,695	79,05
791,873	108,04
792,05	229,36
792,227	775,63
792,404	2406,82
792,581	5325,08
792,758	8587,53
792,935	11736,96
793,112	13097,72
793,289	13316,54
793,466	11571,64
793,643	8528,14
793,82	5083,96
793,996	2956,16
794,173	1921,14
794,35	1250,43
794,527	849,7
794,704	621,84
794,881	501,07
795,057	349,12
795,234	303
795,411	210,96
795,588	200,54
795,765	180,24
795,941	147,03
796,118	118,96
796,295	74,69
796,471	143,14
796,648	119,92
796,825	84,39
797,001	75,6
797,178	86,9
797,354	67,17
797,531	103,77
797,708	143,91
797,884	225,09
798,061	671,26
798,237	1783,77
798,414	3461,63
798,59	5396,49
798,767	6934,31
798,943	8464,96
799,119	10278,24
799,296	12246,43
799,472	13614,96
799,649	14275,98
799,825	14172,76
800,001	13129,8
800,178	10409,04
800,354	6972,88
800,53	3940,61
800,707	2518,53
800,883	1672,88
801,059	1150,83
801,235	806,51
801,411	663,94
801,588	508,49
801,764	353,97
801,94	345,49
802,116	236,84
802,292	264,19
802,468	197,41
802,645	171,78
802,821	159,69
802,997	140,79
803,173	141,72
803,349	147,8
803,525	152,26
803,701	171,32
803,877	168,48
804,053	123,18
804,229	151,11
804,405	132,52
804,581	121,95
804,756	150,68
804,932	159,87
805,108	150,71
805,284	173,72
805,46	158,95
805,636	175,86
805,812	175,1
805,987	185,55
806,163	167,11
806,339	127,81
806,515	200,59
806,69	195,2
806,866	149,38
807,042	189,97
807,217	180,49
807,393	237,85
807,569	393,34
807,744	1032,26
807,92	2964,37
808,096	6616,8
808,271	10899,86
808,447	14481,2
808,622	16337,31
808,798	17007,1
808,973	18387,01
809,149	23186,47
809,324	31992,19
809,5	42801,49
809,675	50636,96
809,851	52581,35
810,026	49629,51
810,201	40245,41
810,377	26543,99
810,552	14674
810,728	8907,09
810,903	6244,87
811,078	4254,91
811,253	3214
811,429	2395,43
811,604	1854,67
811,779	1382,93
811,955	1054,99
812,13	828,21
812,305	666,82
812,48	566
812,655	443,76
812,83	392,85
813,006	371,61
813,181	376,75
813,356	373,64
813,531	406,06
813,706	360,88
813,881	380,76
814,056	398,93
814,231	374,51
814,406	358,38
814,581	396,25
814,756	397,48
814,931	387,26
815,106	417,53
815,281	458,1
815,456	690,29
815,631	1969,66
815,805	6322,36
815,98	15525,34
816,155	27690,74
816,33	38458,68
816,505	45335,19
816,68	47077,92
816,854	47564,03
817,029	48236,75
817,204	54625,14
817,379	61286,66
817,553	62232,32
817,728	63127,01
817,903	63834,49
818,077	64091,73
818,252	64469,63
818,427	56136,81
818,601	32071,71
818,776	12457,18
818,95	8679,1
819,125	6265,79
819,299	4834,91
819,474	3631,05
819,648	2841,51
819,823	2085,48
819,997	1568,19
820,172	1174,71
820,346	905,11
820,521	708,31
820,695	590,52
820,87	486,31
821,044	414,54
821,218	300,64
821,393	279,01
821,567	296,75
821,741	278,1
821,916	233,09
822,09	214,8
822,264	211,63
822,438	252,61
822,613	235,74
822,787	209,08
822,961	222,98
823,135	202,36
823,309	223,53
823,483	275,25
823,658	389,49
823,832	879,18
824,006	2141,4
824,18	4103,63
824,354	6196,81
824,528	7897,42
824,702	8481,66
824,876	8326,33
825,05	7030,63
825,224	5057,6
825,398	3098,62
825,572	1934,94
825,746	1401,44
825,92	1011
826,093	789,76
826,267	619,49
826,441	510,21
826,615	360,95
826,789	314,65
826,963	244,73
827,136	224,11
827,31	194,13
827,484	192,79
827,658	159,43
827,831	162,42
828,005	137,1
828,179	175,27
828,353	121,37
828,526	126,01
828,7	142,65
828,873	151,49
829,047	139,64
829,221	109,22
829,394	130,28
829,568	124,86
829,741	108,21
829,915	85,31
830,088	66,69
830,262	101,99
830,435	129,94
830,609	112,43
830,782	115,3
830,956	121,21
831,129	113,02
831,302	111,33
831,476	109,31
831,649	128,75
831,822	86,36
831,996	91,31
832,169	77,76
832,342	138,24
832,516	68,34
832,689	131,89
832,862	78,94
833,035	67,77
833,209	79,45
833,382	93,54
833,555	117,63
833,728	129,92
833,901	105,3
834,074	87,86
834,247	101,37
834,42	93,97
834,594	123,07
834,767	74,56
834,94	115,14
835,113	68,94
835,286	125,92
835,459	109,47
835,632	149,33
835,805	130,61
835,977	125,98
836,15	104,02
836,323	156,1
836,496	134,55
836,669	151,34
836,842	140,6
837,015	127,01
837,188	168,89
837,36	129,49
837,533	164,28
837,706	204,54
837,879	249,08
838,051	508,97
838,224	1145,54
838,397	2556,86
838,569	4558,09
838,742	6781,69
838,915	8264,28
839,087	8919,85
839,26	8522,64
839,433	7357,91
839,605	5672,07
839,778	4352,26
839,95	4224,99
840,123	5750,05
840,295	8279,09
840,468	10648,48
840,64	12008,61
840,813	11972,02
840,985	10936,34
841,158	8808,82
841,33	6161,6
841,502	3823,27
841,675	2517,65
841,847	1858,39
842,019	1472,43
842,192	1092,23
842,364	827,1
842,536	697,44
842,709	524,6
842,881	426,2
843,053	359,5
843,225	259,19
843,398	192,64
843,57	159,1
843,742	180,54
843,914	110,12
844,086	107,63
844,258	139,99
844,43	120,22
844,602	71,17
844,775	124,36
844,947	70,58
845,119	125,73
845,291	69,06
845,463	69,14
845,635	111,24
845,807	90,87
845,979	83,37
846,15	110,95
846,322	99,29
846,494	108,54
846,666	89,53
846,838	88,17
847,01	95,83
847,182	81,34
847,354	71,76
847,525	90,25
847,697	84,82
847,869	123,54
848,041	103,25
848,212	73,63
848,384	116,83
848,556	93,53
848,727	106,64
848,899	102,13
849,071	97,33
849,242	135,35
849,414	212,37
849,585	433,78
849,757	793,93
849,929	1342,11
850,1	2010,73
850,272	2478,11
850,443	2730,51
850,615	2629,25
850,786	2310,8
850,958	1808,1
851,129	1245,68
851,3	760,22
851,472	567,92
851,643	446,82
851,815	377,11
851,986	287,63
852,157	232,85
852,329	138,11
852,5	181,36
852,671	121,19
852,842	117,13
853,014	122,15
853,185	76,34
853,356	82,22
853,527	89,45
853,698	76,22
853,87	96,16
854,041	41,65
854,212	75,4
854,383	74,36
854,554	93,12
854,725	17,5
854,896	58,13
855,067	65,14
855,238	70,51
855,409	76,83
855,58	74,91
855,751	46,02
855,922	57,17
856,093	38,23
856,264	111,33
856,435	82,12
856,606	80,34
856,777	44,17
856,948	81,21
857,118	84,8
857,289	88,27
857,46	39,27
857,631	78,96
857,802	45,91
857,972	61,12
858,143	54,63
858,314	98,63
858,484	97,47
858,655	73,29
858,826	48,91
858,996	82,16
859,167	44,25
859,338	80,01
859,508	56,4
859,679	91,92
859,849	72,61
860,02	61,22
860,19	54,16
860,361	59,22
860,531	70,65
860,702	-7,97
860,872	25,14
861,043	71,68
861,213	1,86
861,384	79,71
861,554	91,48
861,724	106,6
861,895	52,54
862,065	16,56
862,235	36,25
862,406	59,72
862,576	88,88
862,746	41,53
862,916	61,25
863,087	16,78
863,257	53,88
863,427	83,57
863,597	55,91
863,767	46,35
863,937	112,65
864,108	51,1
864,278	98,81
864,448	88,3
864,618	137,36
864,788	267,39
864,958	295,21
865,128	350,38
865,298	365,59
865,468	346,19
865,638	362,32
865,808	269,12
865,978	165,57
866,148	178,38
866,318	133,65
866,487	67,77
866,657	89,72
866,827	44,38
866,997	92,96
867,167	42,38
867,337	74,58
867,506	50,85
867,676	75,38
867,846	56,95
868,016	52,07
868,185	49,7
868,355	32,89
868,525	30,4
868,694	49,78
868,864	21,8
869,034	55,53
869,203	26,64
869,373	46,82
869,542	15,97
869,712	25,85
869,881	36,61
870,051	67,2
870,22	57,48
870,39	55,07
870,559	68,37
870,729	106,02
870,898	40,3
871,068	22,42
871,237	65,65
871,406	41,97
871,576	48,71
871,745	68,17
871,914	76,81
872,084	35,63
872,253	39,38
872,422	65,82
872,591	41,31
872,761	73,68
872,93	-121,19
873,099	70,54
873,268	25,91
873,437	57,26
873,607	57,47
873,776	52,22
873,945	31,32
874,114	74,97
874,283	23,95
874,452	61,27
874,621	33,73
874,79	24,54
874,959	52,3
875,128	34,8
875,297	39,75
875,466	27,11
875,635	23,6
875,804	33,33
875,973	59,19
876,142	-15,79
876,31	45,46
876,479	24,61
876,648	12,57
876,817	52,33
876,986	7,26
877,155	36,66
877,323	56,97
877,492	17,25
877,661	8,63
877,829	32,18
877,998	47,83
878,167	40,86
878,335	45,67
878,504	64,61
878,673	39,81
878,841	78,55
879,01	53,33
879,178	47,99
879,347	33,21
879,515	28,12
879,684	7,42
879,852	40,2
880,021	38,47
880,189	21,05
880,358	31,9
880,526	-69,87
880,695	75,43
880,863	-2,95
881,031	36,34
881,2	1,37
881,368	44,85
881,536	-6,65
881,705	43,73
881,873	36,78
882,041	17,33
882,21	7,55
882,378	10,63
882,546	44,71
882,714	25,62
882,882	52,21
883,05	1,54
883,219	38,36
883,387	43,76
883,555	64,83
883,723	34,93
883,891	21
884,059	46,74
884,227	18,9
884,395	12,93
884,563	34,14
884,731	20,65
884,899	13,78
885,067	41,53
885,235	30,61
885,403	20,84
885,571	18,59
885,739	28,51
