Data from Subt14__2__10-07-07-856.txt Node

Date: Mon Feb 19 10:07:07 CET 2024
User: Versuch 234
Spectrometer: USB4F03543
Trigger mode: 4
Integration Time (sec): 1,000000E-1
Scans to average: 10
Electric dark correction enabled: true
Nonlinearity correction enabled: false
Boxcar width: 0
XAxis mode: Wavelengths
Number of Pixels in Spectrum: 3648
>>>>>Begin Spectral Data<<<<<
179,969	-8,29
180,181	-8,29
180,394	-8,29
180,606	3,38
180,819	-16,69
181,031	-16,69
181,243	-12,19
181,456	14,44
181,668	38,81
181,88	1,33
182,093	-19,56
182,305	1,13
182,518	22,43
182,73	7,27
182,942	-2,56
183,155	-20,58
183,367	-13,82
183,579	-14,44
183,791	-0,72
184,004	-11,57
184,216	26,52
184,428	0,72
184,641	32,87
184,853	6,45
185,065	-0,1
185,277	10,14
185,49	13,62
185,702	-24,47
185,914	36,15
186,126	1,54
186,338	-21,2
186,551	5,02
186,763	25,7
186,975	17,31
187,187	9,93
187,399	23,45
187,612	32,87
187,824	34,3
188,036	-9,52
188,248	14,23
188,46	8,91
188,672	4,61
188,885	-20,38
189,097	14,85
189,309	-3,38
189,521	-11,37
189,733	21,61
189,945	21,61
190,157	20,17
190,369	16,9
190,581	6,66
190,794	23,65
191,006	25,91
191,218	6,66
191,43	-1,33
191,642	4,61
191,854	8,7
192,066	14,03
192,278	26,11
192,49	21,4
192,702	9,52
192,914	8,7
193,126	27,55
193,338	4,2
193,55	-9,73
193,762	-2,76
193,974	-4,61
194,186	9,93
194,398	-0,92
194,61	-8,7
194,822	47,62
195,034	10,34
195,246	10,75
195,457	20,99
195,669	0,51
195,881	1,33
196,093	11,78
196,305	-13,21
196,517	19,35
196,729	15,67
196,941	-16,49
197,153	-6,25
197,365	7,27
197,576	6,66
197,788	-7,68
198	0,92
198,212	23,45
198,424	16,08
198,636	-0,51
198,847	31,44
199,059	25,91
199,271	-2,97
199,483	-13
199,695	35,33
199,906	1,54
200,118	13,82
200,33	35,94
200,542	13
200,753	21,81
200,965	13,62
201,177	31,64
201,389	4,81
201,6	11,78
201,812	-14,23
202,024	22,83
202,235	-3,99
202,447	15,26
202,659	-17,31
202,871	2,56
203,082	12,39
203,294	11,78
203,506	18,74
203,717	-9,93
203,929	-1,54
204,141	33,89
204,352	15,05
204,564	4,81
204,775	-13,41
204,987	17,1
205,199	-1,74
205,41	-2,76
205,622	11,78
205,833	11,78
206,045	-15,26
206,257	0,1
206,468	23,24
206,68	27,55
206,891	-27,34
207,103	-17,31
207,314	12,6
207,526	40,24
207,737	1,95
207,949	1,95
208,16	-1,13
208,372	5,02
208,583	-5,84
208,795	23,24
209,006	23,04
209,218	-17,51
209,429	30,41
209,641	23,24
209,852	1,33
210,064	12,19
210,275	35,33
210,487	-5,02
210,698	2,36
210,909	3,58
211,121	2,15
211,332	15,87
211,544	22,22
211,755	6,66
211,966	19,35
212,178	33,69
212,389	30,41
212,6	60,72
212,812	13,62
213,023	13,82
213,234	35,94
213,446	-0,31
213,657	17,71
213,868	17,31
214,08	19,35
214,291	17,51
214,502	5,43
214,714	-30,82
214,925	19,35
215,136	36,97
215,347	18,74
215,559	9,52
215,77	9,73
215,981	31,64
216,192	-5,22
216,404	13,62
216,615	-28,36
216,826	12,19
217,037	14,64
217,249	8,5
217,46	7,48
217,671	4,4
217,882	-15,67
218,093	23,65
218,304	2,56
218,516	-22,83
218,727	11,16
218,938	3,99
219,149	19,15
219,36	-14,85
219,571	35,53
219,782	23,04
219,993	16,9
220,205	-2,56
220,416	40,24
220,627	-9,32
220,838	11,98
221,049	37,17
221,26	17,51
221,471	47,62
221,682	8,91
221,893	15,46
222,104	20,17
222,315	9,93
222,526	-3,79
222,737	16,49
222,948	-3,99
223,159	31,85
223,37	-6,04
223,581	18,94
223,792	-1,54
224,003	-19,76
224,214	19,76
224,425	26,73
224,636	20,17
224,847	15,46
225,058	-6,04
225,269	13,62
225,48	-9,11
225,691	30,62
225,902	17,1
226,112	9,52
226,323	-2,97
226,534	25,7
226,745	-9,52
226,956	41,27
227,167	-14,44
227,378	13
227,589	7,48
227,799	18,74
228,01	36,56
228,221	25,7
228,432	4,61
228,643	-27,14
228,853	14,03
229,064	11,98
229,275	50,48
229,486	22,43
229,697	22,63
229,907	2,56
230,118	1,95
230,329	6,86
230,54	12,8
230,75	7,68
230,961	17,51
231,172	-7,07
231,383	22,02
231,593	28,57
231,804	16,9
232,015	-12,8
232,225	-21,4
232,436	11,78
232,647	4,4
232,857	15,05
233,068	23,65
233,279	-2,76
233,489	18,94
233,7	19,56
233,91	1,54
234,121	-4,2
234,332	13,41
234,542	53,35
234,753	-17,1
234,964	4,81
235,174	6,45
235,385	20,58
235,595	27,14
235,806	30
236,016	7,68
236,227	56,63
236,437	7,07
236,648	10,14
236,858	21,81
237,069	8,91
237,279	25,29
237,49	33,48
237,7	27,34
237,911	6,66
238,121	-3,79
238,332	15,67
238,542	5,02
238,753	40,45
238,963	-4,61
239,174	23,04
239,384	-33,69
239,595	22,02
239,805	54,99
240,015	24,06
240,226	10,96
240,436	7,88
240,647	8,5
240,857	44,75
241,067	25,29
241,278	7,48
241,488	1,33
241,698	5,22
241,909	40,65
242,119	5,43
242,329	4,61
242,54	10,96
242,75	-15,05
242,96	38,81
243,171	37,79
243,381	18,12
243,591	-3,58
243,801	39,42
244,012	26,93
244,222	0,92
244,432	9,32
244,642	36,15
244,853	-2,36
245,063	-4,4
245,273	20,38
245,483	19,76
245,694	1,95
245,904	14,44
246,114	13,21
246,324	1,13
246,534	9,52
246,744	25,5
246,955	44,13
247,165	10,75
247,375	-12,39
247,585	20,99
247,795	-2,56
248,005	34,51
248,215	8,29
248,425	-12,6
248,636	13,82
248,846	0,92
249,056	50,89
249,266	7,68
249,476	-8,29
249,686	0,51
249,896	11,16
250,106	-0,72
250,316	19,76
250,526	51,51
250,736	-7,88
250,946	38,6
251,156	14,44
251,366	8,09
251,576	-1,74
251,786	28,16
251,996	-3,99
252,206	2,56
252,416	9,73
252,626	1,33
252,836	21,81
253,046	-6,66
253,256	11,98
253,466	12,19
253,676	15,05
253,885	-7,88
254,095	3,58
254,305	9,11
254,515	25,5
254,725	41,47
254,935	12,39
255,145	20,58
255,355	15,46
255,564	6,04
255,774	11,57
255,984	-4,4
256,194	7,27
256,404	0,1
256,614	27,34
256,823	16,9
257,033	2,56
257,243	39,63
257,453	32,05
257,662	12,19
257,872	6,86
258,082	25,91
258,292	37,79
258,501	6,25
258,711	40,65
258,921	-7,27
259,131	53,14
259,34	0,72
259,55	32,26
259,76	14,44
259,969	20,38
260,179	13,82
260,389	29,18
260,598	5,02
260,808	13,82
261,018	18,94
261,227	19,97
261,437	27,55
261,647	51,1
261,856	10,75
262,066	20,99
262,275	-1,13
262,485	32,67
262,694	7,48
262,904	9,32
263,114	8,09
263,323	3,58
263,533	11,16
263,742	-11,37
263,952	-1,33
264,161	2,97
264,371	-16,49
264,58	-14,64
264,79	45,16
264,999	31,03
265,209	35,74
265,418	13
265,628	-3,99
265,837	12,6
266,047	15,46
266,256	14,23
266,466	25,91
266,675	-26,93
266,884	27,14
267,094	-0,92
267,303	-9,93
267,513	55,6
267,722	6,45
267,931	7,27
268,141	39,22
268,35	-9,52
268,559	26,73
268,769	33,48
268,978	9,52
269,187	-2,97
269,397	26,52
269,606	11,16
269,815	47,41
270,025	23,24
270,234	9,52
270,443	-8,5
270,653	15,05
270,862	39,01
271,071	14,03
271,28	8,91
271,49	22,22
271,699	-17,51
271,908	32,46
272,117	8,5
272,327	16,9
272,536	5,84
272,745	-9,52
272,954	-1,33
273,163	47,41
273,372	47,62
273,582	10,34
273,791	-2,76
274	2,76
274,209	27,95
274,418	35,33
274,627	5,84
274,836	-7,68
275,046	10,34
275,255	11,16
275,464	1,95
275,673	23,86
275,882	11,98
276,091	11,57
276,3	29,59
276,509	7,88
276,718	4,2
276,927	17,1
277,136	-14,85
277,345	6,04
277,554	11,78
277,763	9,93
277,972	10,75
278,181	-6,25
278,39	26,32
278,599	18,53
278,808	8,5
279,017	5,02
279,226	10,14
279,435	30
279,644	-30,41
279,853	-22,83
280,062	13,82
280,271	14,64
280,48	-1,95
280,688	-19,76
280,897	4,61
281,106	18,53
281,315	49,87
281,524	11,16
281,733	41,88
281,942	31,03
282,151	26,93
282,359	23,86
282,568	-3,17
282,777	-4,81
282,986	36,76
283,195	25,91
283,403	12,19
283,612	18,94
283,821	16,49
284,03	-13,62
284,238	13,82
284,447	4,2
284,656	-14,44
284,865	-23,45
285,073	25,7
285,282	26,73
285,491	-0,92
285,699	-9,73
285,908	-12,39
286,117	9,11
286,325	-0,51
286,534	15,67
286,743	32,26
286,951	33,89
287,16	19,35
287,369	25,7
287,577	9,73
287,786	-2,15
287,995	24,68
288,203	29,18
288,412	28,16
288,62	32,05
288,829	1,95
289,037	32,46
289,246	23,24
289,455	24,47
289,663	39,42
289,872	6,86
290,08	5,63
290,289	32,67
290,497	1,13
290,706	11,98
290,914	-4,4
291,123	-11,16
291,331	16,9
291,54	-3,38
291,748	-17,92
291,957	10,96
292,165	-2,97
292,373	29,39
292,582	27,55
292,79	12,6
292,999	8,29
293,207	5,02
293,415	-4,81
293,624	27,75
293,832	20,79
294,041	4,4
294,249	15,26
294,457	29,59
294,666	40,04
294,874	19,35
295,082	-4,4
295,291	11,16
295,499	38,19
295,707	16,28
295,915	15,46
296,124	13
296,332	33,28
296,54	32,05
296,749	7,68
296,957	16,28
297,165	30,41
297,373	14,23
297,581	30,21
297,79	0,92
297,998	-7,68
298,206	14,44
298,414	27,75
298,622	5,84
298,831	39,63
299,039	22,02
299,247	25,09
299,455	22,83
299,663	-12,19
299,871	17,1
300,08	5,63
300,288	19,35
300,496	18,12
300,704	27,14
300,912	17,51
301,12	-20,79
301,328	14,85
301,536	17,1
301,744	10,34
301,952	12,19
302,16	14,64
302,368	9,93
302,576	28,57
302,784	1,54
302,992	3,17
303,2	14,64
303,408	12,39
303,616	17,71
303,824	-10,96
304,032	24,88
304,24	44,75
304,448	14,23
304,656	19,56
304,864	47,21
305,072	5,63
305,28	18,33
305,488	24,88
305,696	23,86
305,904	3,99
306,111	23,65
306,319	1,33
306,527	15,05
306,735	20,99
306,943	21,2
307,151	12,6
307,359	24,06
307,566	16,9
307,774	19,56
307,982	16,49
308,19	37,17
308,398	7,88
308,605	9,11
308,813	28,57
309,021	-8,09
309,229	47,82
309,436	2,15
309,644	12,19
309,852	35,94
310,06	14,64
310,267	2,36
310,475	36,97
310,683	8,29
310,89	13,62
311,098	39,01
311,306	-10,14
311,513	8,29
311,721	4,4
311,929	38,81
312,136	27,95
312,344	4,2
312,552	20,17
312,759	34,71
312,967	-1,74
313,174	4,4
313,382	9,52
313,589	-5,63
313,797	8,29
314,005	43,31
314,212	14,23
314,42	-0,31
314,627	28,36
314,835	8,29
315,042	21,81
315,25	7,48
315,457	20,58
315,665	5,63
315,872	24,47
316,08	27,14
316,287	-7,27
316,495	81,61
316,702	7,27
316,909	30,62
317,117	0,92
317,324	13,41
317,532	29,59
317,739	16,49
317,946	23,24
318,154	24,47
318,361	0,51
318,569	41,68
318,776	-2,36
318,983	10,96
319,191	2,76
319,398	26,93
319,605	15,05
319,813	11,78
320,02	7,68
320,227	30
320,434	31,44
320,642	42,5
320,849	21,61
321,056	12,39
321,264	4,61
321,471	29,59
321,678	27,95
321,885	45,77
322,092	37,79
322,3	23,86
322,507	6,66
322,714	11,98
322,921	26,11
323,128	14,85
323,336	1,74
323,543	33,48
323,75	13,21
323,957	23,04
324,164	18,74
324,371	44,75
324,578	17,51
324,786	35,94
324,993	-4,2
325,2	31,23
325,407	-12,6
325,614	26,52
325,821	31,23
326,028	28,77
326,235	47,21
326,442	11,98
326,649	5,02
326,856	31,23
327,063	41,68
327,27	3,79
327,477	-17,92
327,684	12,8
327,891	28,98
328,098	23,86
328,305	31,23
328,512	25,91
328,719	30,62
328,926	24,88
329,133	6,86
329,34	20,17
329,546	-17,92
329,753	42,5
329,96	13,62
330,167	41,47
330,374	37,38
330,581	23,86
330,788	12,39
330,995	28,98
331,201	31,64
331,408	23,65
331,615	63,38
331,822	20,58
332,029	37,79
332,235	13,62
332,442	11,57
332,649	43,93
332,856	28,16
333,062	12,8
333,269	-1,13
333,476	24,27
333,683	31,44
333,889	5,63
334,096	22,43
334,303	22,63
334,509	10,34
334,716	23,45
334,923	19,15
335,129	0,92
335,336	34,71
335,543	25,09
335,749	20,79
335,956	19,76
336,163	16,28
336,369	24,06
336,576	3,99
336,782	6,25
336,989	23,45
337,196	19,56
337,402	43,93
337,609	33,28
337,815	24,88
338,022	-2,56
338,228	2,56
338,435	29,18
338,641	39,42
338,848	0,1
339,054	18,12
339,261	27,34
339,467	33,07
339,674	13,62
339,88	36,35
340,087	28,36
340,293	23,86
340,5	26,11
340,706	36,35
340,912	-13,41
341,119	-8,29
341,325	48,64
341,532	16,49
341,738	22,83
341,944	28,98
342,151	41,88
342,357	8,7
342,563	28,16
342,77	20,58
342,976	6,45
343,182	5,43
343,389	-5,22
343,595	23,65
343,801	26,73
344,007	27,75
344,214	-8,91
344,42	36,97
344,626	6,04
344,832	28,16
345,039	20,99
345,245	-19,76
345,451	16,9
345,657	-7,07
345,864	11,98
346,07	19,56
346,276	18,12
346,482	47,82
346,688	13
346,894	19,97
347,1	24,06
347,307	36,76
347,513	37,17
347,719	4,81
347,925	16,49
348,131	36,76
348,337	-1,95
348,543	9,32
348,749	22,63
348,955	17,92
349,161	11,98
349,367	24,68
349,573	32,05
349,779	23,45
349,985	46,39
350,191	43,11
350,397	13,21
350,603	9,52
350,809	25,91
351,015	-22,43
351,221	34,3
351,427	26,73
351,633	49,46
351,839	29,39
352,045	23,86
352,251	37,58
352,457	25,09
352,663	23,65
352,869	11,57
353,075	26,11
353,28	16,08
353,486	-4,81
353,692	39,63
353,898	29,8
354,104	1,95
354,31	33,69
354,515	24,27
354,721	47,62
354,927	17,51
355,133	10,55
355,339	34,1
355,544	18,94
355,75	41,68
355,956	27,95
356,162	15,87
356,367	20,99
356,573	30,21
356,779	55,19
356,984	9,52
357,19	38,6
357,396	3,58
357,602	-8,09
357,807	16,49
358,013	55,4
358,218	19,97
358,424	41,47
358,63	5,43
358,835	6,66
359,041	5,84
359,247	23,24
359,452	-7,48
359,658	-3,99
359,863	-6,04
360,069	14,03
360,274	47,21
360,48	-8,5
360,685	23,24
360,891	34,92
361,097	1,54
361,302	16,49
361,508	12,6
361,713	-2,76
361,918	37,99
362,124	8,7
362,329	41,06
362,535	34,71
362,74	28,98
362,946	44,13
363,151	37,79
363,357	26,32
363,562	-2,97
363,767	8,5
363,973	17,71
364,178	1,74
364,383	20,79
364,589	48,23
364,794	41,27
365	82,02
365,205	29,39
365,41	11,16
365,615	8,29
365,821	33,69
366,026	23,65
366,231	39,63
366,437	15,87
366,642	47,21
366,847	24,68
367,052	13
367,258	-3,79
367,463	-0,92
367,668	18,74
367,873	42,29
368,078	30,82
368,284	30,82
368,489	20,38
368,694	14,44
368,899	41,47
369,104	20,79
369,309	25,29
369,515	10,34
369,72	17,31
369,925	21,2
370,13	28,16
370,335	25,29
370,54	35,74
370,745	28,77
370,95	32,67
371,155	17,1
371,36	18,74
371,565	29,59
371,77	2,76
371,975	-0,92
372,18	19,35
372,385	24,27
372,59	23,65
372,795	15,46
373	43,52
373,205	29,18
373,41	-4,61
373,615	29,18
373,82	40,04
374,025	14,64
374,23	34,92
374,435	-13,41
374,64	38,19
374,845	50,89
375,05	5,43
375,254	9,11
375,459	12,6
375,664	19,56
375,869	-1,95
376,074	10,14
376,279	-5,22
376,483	18,12
376,688	35,33
376,893	17,92
377,098	4,61
377,303	30
377,507	19,97
377,712	37,79
377,917	28,16
378,122	9,11
378,326	49,66
378,531	27,55
378,736	4,2
378,94	36,97
379,145	49,87
379,35	22,43
379,554	20,99
379,759	16,9
379,964	25,7
380,168	21,4
380,373	6,45
380,578	32,87
380,782	31,03
380,987	3,99
381,191	14,64
381,396	47
381,601	-8,5
381,805	15,67
382,01	43,31
382,214	35,94
382,419	28,36
382,623	43,93
382,828	30,82
383,032	7,48
383,237	24,47
383,441	-4,2
383,646	30,62
383,85	20,79
384,055	28,98
384,259	36,35
384,464	14,23
384,668	34,92
384,872	20,17
385,077	13,41
385,281	8,7
385,486	41,47
385,69	19,56
385,894	70,55
386,099	5,22
386,303	31,85
386,507	26,32
386,712	14,23
386,916	34,71
387,12	30,82
387,325	29,59
387,529	43,31
387,733	49,46
387,937	47,62
388,142	30,41
388,346	41,68
388,55	26,52
388,754	27,34
388,959	42,7
389,163	28,16
389,367	15,67
389,571	20,17
389,775	50,89
389,98	14,64
390,184	10,55
390,388	54,58
390,592	47
390,796	8,7
391	19,97
391,204	16,08
391,409	26,73
391,613	23,45
391,817	11,57
392,021	15,26
392,225	14,03
392,429	59,08
392,633	20,99
392,837	36,97
393,041	38,6
393,245	43,93
393,449	38,81
393,653	20,17
393,857	42,29
394,061	51,51
394,265	32,46
394,469	41,68
394,673	56,01
394,877	26,32
395,081	47,21
395,285	4,81
395,489	47,21
395,693	57,86
395,896	26,52
396,1	52,33
396,304	29,18
396,508	19,76
396,712	18,53
396,916	61,95
397,12	32,67
397,323	77,93
397,527	30,62
397,731	23,65
397,935	58,47
398,139	52,74
398,342	42,9
398,546	24,88
398,75	31,64
398,954	-6,86
399,157	31,44
399,361	33,69
399,565	33,89
399,769	20,58
399,972	46,18
400,176	67,69
400,38	15,67
400,583	37,99
400,787	41,47
400,991	21,2
401,194	24,47
401,398	45,36
401,601	15,87
401,805	58,06
402,009	27,95
402,212	37,38
402,416	66,05
402,619	12,19
402,823	62,16
403,026	60,72
403,23	46,18
403,433	68,09
403,637	46,8
403,841	74,03
404,044	68,71
404,247	17,51
404,451	37,38
404,654	39,22
404,858	45,98
405,061	27,14
405,265	49,25
405,468	48,64
405,672	18,94
405,875	45,77
406,078	50,69
406,282	47,21
406,485	66,46
406,689	48,43
406,892	81,82
407,095	85,71
407,299	79,36
407,502	70,55
407,705	53,14
407,909	64,82
408,112	82,23
408,315	75,88
408,518	57,45
408,722	79,97
408,925	81,82
409,128	107,83
409,331	87,35
409,535	90,83
409,738	100,25
409,941	116,63
410,144	116,43
410,347	104,96
410,551	104,96
410,754	112,54
410,957	87,76
411,16	131,38
411,363	138,34
411,566	135,68
411,769	129,94
411,973	140,59
412,176	141,82
412,379	164,76
412,582	162,1
412,785	162,3
412,988	144,48
413,191	163,94
413,394	183,81
413,597	183,81
413,8	207,15
414,003	211,25
414,206	210,02
414,409	220,46
414,612	201,62
414,815	240,94
415,018	223,54
415,221	272,89
415,424	253,03
415,627	274,74
415,83	284,16
416,033	300,95
416,235	320,81
416,438	335,97
416,641	322,45
416,844	356,65
417,047	359,32
417,25	356,45
417,453	374,88
417,655	392,7
417,858	406,42
418,061	428,74
418,264	451,27
418,467	447,79
418,669	488,13
418,872	516,19
419,075	524,79
419,278	568,41
419,48	581,11
419,683	595,04
419,886	567,39
420,089	660,57
420,291	652,38
420,494	668,76
420,697	693,14
420,899	748,63
421,102	720,78
421,305	819,29
421,507	804,75
421,71	880,11
421,912	927,42
422,115	985,79
422,318	933,36
422,52	998,28
422,723	1026,95
422,925	1109,69
423,128	1093,51
423,33	1171,13
423,533	1159,87
423,735	1230,11
423,938	1271,69
424,14	1317,15
424,343	1341,93
424,545	1449,25
424,748	1433,48
424,95	1504,95
425,153	1685,17
425,355	1677,59
425,558	1759,92
425,76	1809,69
425,962	1835,7
426,165	1864,57
426,367	2060,15
426,57	2113,61
426,772	2099,68
426,974	2255,74
427,177	2286,05
427,379	2340,32
427,581	2501,29
427,784	2629,28
427,986	2464,22
428,188	2782,06
428,39	2921,73
428,593	2916
428,795	3152,13
428,997	3186,54
429,2	3205,79
429,402	3401,98
429,604	3558,65
429,806	3543,91
430,008	3734,78
430,211	3850,9
430,413	3921,55
430,615	3975
430,817	4303,09
431,019	4325,62
431,221	4447,06
431,423	4513,62
431,626	4699,17
431,828	4799,31
432,03	4926,29
432,232	4985,47
432,434	5365,78
432,636	5639,59
432,838	5586,96
433,04	5749,16
433,242	6132,13
433,444	6011,51
433,646	6181,69
433,848	6550,12
434,05	6664,4
434,252	6685,49
434,454	6883,94
434,656	7157,75
434,858	7482,36
435,06	7623,05
435,262	7744,7
435,464	8310,76
435,666	8376,91
435,868	8331,44
436,07	8893,61
436,271	9378,37
436,473	9305,46
436,675	9594,63
436,877	9656,68
437,079	9624,74
437,281	10143,9
437,482	10474,23
437,684	11025,55
437,886	10964,72
438,088	11107,67
438,29	11255,74
438,491	11727,18
438,693	11773,67
438,895	12250,23
439,097	13393,41
439,298	12677,03
439,5	13207,86
439,702	13292,03
439,903	13174,48
440,105	14022,54
440,307	14755,1
440,508	15253,78
440,71	15802,02
440,912	15593,34
441,113	15690,61
441,315	16187,25
441,517	16477,24
441,718	17217,58
441,92	17363,6
442,121	17203,65
442,323	18325,12
442,524	18628,02
442,726	19165,4
442,928	19432,05
443,129	20444,56
443,331	19837,96
443,532	21051,79
443,734	21741,54
443,935	22064,92
444,136	21203,13
444,338	23096,68
444,539	23627,93
444,741	23947,21
444,942	23890,48
445,144	24927,57
445,345	25977,15
445,546	26373,02
445,748	25988,62
445,949	26100,64
446,151	27137,53
446,352	28041,71
446,553	28112,36
446,755	28105,61
446,956	29922,56
447,157	30414,08
447,359	30022,91
447,56	30719,63
447,761	31675,01
447,962	32275,07
448,164	32968,1
448,365	31138,44
448,566	33184,98
448,767	32748,35
448,969	34465,16
449,17	34366,25
449,371	33549,52
449,572	34933,74
449,773	35479,11
449,974	35139,97
450,176	36108,66
450,377	37419,15
450,578	37305,08
450,779	36054,59
450,98	34819,26
451,181	36274,34
451,382	35987,42
451,583	36531,15
451,784	36382,47
451,986	39051,79
452,187	36378,99
452,388	37035,57
452,589	35427,3
452,79	37909,85
452,991	35804,74
453,192	37506,81
453,393	37371,85
453,594	38937,93
453,795	36954,06
453,995	36603,86
454,196	35907,55
454,397	37054,82
454,598	35540,14
454,799	36267,38
455	36111,32
455,201	34902,41
455,402	34770,52
455,603	34024,03
455,804	35844,68
456,004	36110,09
456,205	33209,55
456,406	32859,56
456,607	32683,23
456,808	32811,43
457,008	31548,45
457,209	30924,84
457,41	33568,56
457,611	30562,14
457,811	30355,5
458,012	30582,21
458,213	30135,14
458,414	28970,26
458,614	28834,27
458,815	28459,09
459,016	27910,43
459,216	28378,4
459,417	28000,14
459,618	27528,49
459,818	27138,56
460,019	26112,11
460,22	25998,25
460,42	25823,55
460,621	24425,61
460,821	24448,14
461,022	23729,1
461,223	22745,05
461,423	23337,73
461,624	23087,26
461,824	23795,25
462,025	22214,62
462,225	23166,72
462,426	23561,78
462,626	22591,04
462,827	21703,66
463,027	21117,32
463,228	21375,78
463,428	20385,99
463,628	20472,62
463,829	20421,01
464,029	19603,67
464,23	19866,83
464,43	19410,75
464,63	19178,72
464,831	19334,98
465,031	19243,64
465,231	19353,41
465,432	18969,21
465,632	18604,46
465,832	17619,39
466,033	18569,85
466,233	17850,61
466,433	16979,61
466,634	17541,16
466,834	17812,11
467,034	17006,03
467,234	17611,2
467,435	17053,95
467,635	17203,24
467,835	16003,75
468,035	16810,65
468,235	16329,99
468,436	16109,63
468,636	15878,21
468,836	15807,96
469,036	16303,16
469,236	15528,42
469,436	15213,64
469,636	15446,5
469,836	15216,31
470,037	14999,22
470,237	14766,78
470,437	14785,62
470,637	14070,47
470,837	14330,35
471,037	14293,7
471,237	14612,36
471,437	14365,37
471,637	14299,43
471,837	14345,71
472,037	13727,02
472,237	13456,69
472,437	13666,61
472,637	13817,34
472,837	13368,63
473,036	12943,67
473,236	13197,62
473,436	12708,57
473,636	12791,92
473,836	12424,31
474,036	12788,23
474,236	12517,9
474,436	12383,56
474,635	11908,63
474,835	11804,18
475,035	12143,74
475,235	12167,49
475,435	11755,44
475,634	11389,47
475,834	11716,94
476,034	11453,16
476,234	11371,04
476,433	11162,56
476,633	11165,42
476,833	11206,38
477,033	11131,22
477,232	11198,19
477,432	10743,95
477,632	10892,02
477,831	10647,08
478,031	10539,15
478,231	10606,33
478,43	10431,23
478,63	10519,9
478,829	10401,74
479,029	10432,66
479,229	10456,83
479,428	10448,43
479,628	10421,19
479,827	10350,95
480,027	10312,24
480,226	10137,55
480,426	10286,44
480,625	9858
480,825	10246,09
481,024	10000,13
481,224	10098,84
481,423	9857,18
481,623	9900,39
481,822	9870,9
482,021	10027,78
482,221	10051,12
482,42	9771,37
482,62	9807,21
482,819	9626,37
483,018	9468,48
483,218	9360,75
483,417	9408,47
483,616	9328,19
483,816	9055,2
484,015	9167,02
484,214	9202,24
484,414	9184,01
484,613	8934,16
484,812	9051,92
485,011	9090,83
485,211	9048,44
485,41	9037,79
485,609	9123,6
485,808	9015,88
486,008	9151,86
486,207	9014,44
486,406	8990,28
486,605	8877,43
486,804	8838,93
487,003	8789,98
487,203	8770,53
487,402	8644,58
487,601	8713,19
487,8	8563,68
487,999	8496,72
488,198	8451,05
488,397	8497,53
488,596	8403,12
488,795	8450,64
488,994	8365,65
489,193	8327,96
489,392	8296,42
489,591	8424,42
489,79	8252,8
489,989	8395,75
490,188	8181,94
490,387	8253,83
490,586	8112,93
490,785	8292,33
490,984	8151,02
491,183	8114,97
491,382	8037,56
491,581	8156,75
491,779	8167,2
491,978	8191,77
492,177	8177,85
492,376	8203,24
492,575	8289,67
492,774	8245,43
492,972	8373,63
493,171	8259,97
493,37	8206,11
493,569	8224,34
493,768	8099,2
493,966	8166,79
494,165	8211,23
494,364	8318,34
494,563	8148,15
494,761	8327,96
494,96	8229,46
495,159	8356,22
495,357	8239,49
495,556	8347,21
495,755	8181,12
495,953	8473,37
496,152	8498,76
496,35	8513,92
496,549	8456,57
496,748	8428,72
496,946	8462,31
497,145	8528,25
497,343	8518,63
497,542	8571,47
497,74	8638,23
497,939	8694,96
498,137	8630,65
498,336	8651,13
498,534	8599,73
498,733	8772,17
498,931	8898,53
499,13	8896,27
499,328	8828,28
499,527	8960,17
499,725	8965,29
499,924	9093,9
500,122	9085,92
500,32	9225,59
500,519	9248,73
500,717	9236,85
500,915	9161,9
501,114	9344,16
501,312	9314,26
501,51	9502,47
501,709	9411,75
501,907	9528,89
502,105	9446,15
502,304	9715,46
502,502	9573,33
502,7	9804,55
502,898	9925,38
503,097	9986,61
503,295	10030,44
503,493	10274,15
503,691	10394,57
503,889	10383,3
504,088	10501,88
504,286	10559,02
504,484	10520,52
504,682	10747,64
504,88	10716,51
505,078	10871,33
505,276	11009,98
505,474	11030,87
505,672	10997,69
505,871	11122,62
506,069	11304,89
506,267	11341,96
506,465	11395,41
506,663	11505,8
506,861	11610,24
507,059	11818,52
507,257	11859,28
507,455	12054,86
507,653	12114,66
507,851	12243,06
508,049	12063,46
508,246	12180,4
508,444	12192,07
508,642	12438,24
508,84	12236,72
509,038	12393,18
509,236	12347,1
509,434	12463,02
509,632	12534,29
509,829	12642,21
510,027	12763,04
510,225	12932,21
510,423	13057,34
510,621	13190,86
510,818	13404,26
511,016	13608,85
511,214	13596,16
511,412	13965,61
511,609	13884,92
511,807	14166,72
512,005	14209,32
512,203	14474,33
512,4	14499,11
512,598	14651,27
512,796	14722,13
512,993	14739,54
513,191	14918,74
513,389	14990,62
513,586	15142,37
513,784	15256,45
513,981	15234,33
514,179	15430,32
514,377	15514,08
514,574	15542,96
514,772	15642,49
514,969	15925,72
515,167	16051,88
515,364	16160,01
515,562	16134,21
515,759	16272,24
515,957	16205,68
516,154	16690,84
516,352	16808,4
516,549	16883,35
516,746	17041,66
516,944	17234,78
517,141	17374,05
517,339	17386,74
517,536	17597,68
517,733	17572,7
517,931	17845,08
518,128	17962,84
518,325	17855,11
518,523	18017,52
518,72	17912,05
518,917	18359,53
519,115	18323,07
519,312	18490,19
519,509	18508,21
519,707	18519,88
519,904	18555,52
520,101	18902,24
520,298	18952,62
520,495	19016,31
520,693	18901,42
520,89	19141,24
521,087	18962,65
521,284	19454,78
521,481	19311,22
521,678	19568,85
521,876	19578,48
522,073	19884,04
522,27	19845,53
522,467	19943,02
522,664	19907,18
522,861	20275,4
523,058	20325,78
523,255	20459,11
523,452	20537,54
523,649	20661,04
523,846	20794,36
524,043	21038,89
524,24	21166,47
524,437	20933,82
524,634	20921,54
524,831	21025,78
525,028	20880,17
525,225	20949,39
525,422	20788,62
525,619	21043,39
525,816	21029,87
526,013	21341,17
526,209	21154,39
526,406	21151,73
526,603	21029,67
526,8	21263,75
526,997	21154,6
527,194	21331,13
527,39	21397,28
527,587	21556,2
527,784	21508,69
527,981	21660,65
528,177	21784,14
528,374	22117,55
528,571	22056,32
528,768	22344,47
528,964	22374,78
529,161	22343,85
529,358	22345,28
529,554	22221,18
529,751	22149,09
529,948	22289,38
530,144	22227,12
530,341	22588,58
530,537	22643,26
530,734	22924,65
530,931	22704,7
531,127	22911,14
531,324	22924,04
531,52	22992,85
531,717	23000,23
531,913	22840,89
532,11	22952,92
532,306	23003,09
532,503	23127,81
532,699	23245,98
532,896	23267,69
533,092	23303,32
533,289	23256,02
533,485	23238,61
533,682	23171,44
533,878	23336,91
534,074	22951,69
534,271	23345,72
534,467	23407,36
534,664	23577,14
534,86	23589,43
535,056	23669,91
535,253	23444,22
535,449	23634,48
535,645	23558,71
535,841	23686,7
536,038	23558,3
536,234	23629,57
536,43	23801,8
536,626	23735,65
536,823	23370,7
537,019	23458,15
537,215	23390,77
537,411	23596,8
537,607	23427,23
537,804	23589,43
538	23550,92
538,196	23622,4
538,392	23747,73
538,588	23508,53
538,784	23757,15
538,98	23769,65
539,176	23890,68
539,373	24326,28
539,569	24107,56
539,765	24182,31
539,961	24293,93
540,157	24299,66
540,353	24055,54
540,549	24551,56
540,745	24466,16
540,941	24766,6
541,137	24705,98
541,333	24949,89
541,528	24900,54
541,724	24775,4
541,92	24587,61
542,116	24604,6
542,312	24185,59
542,508	24237,4
542,704	24037,73
542,9	23902,97
543,096	23859,76
543,291	24144,43
543,487	24081,55
543,683	24268,74
543,879	24303,35
544,075	24254,61
544,27	24640,44
544,466	24612,39
544,662	24579
544,858	24802,44
545,053	24533,33
545,249	24743,46
545,445	24715,4
545,64	24750,83
545,836	24599,07
546,032	24497,9
546,227	24383,42
546,423	24223,68
546,619	24194,81
546,814	24433,39
547,01	24389,57
547,205	24573,47
547,401	24162,65
547,597	24411,48
547,792	23956,22
547,988	24404,72
548,183	24344,31
548,379	24658,26
548,574	24392,64
548,77	24448,55
548,965	24261,16
549,161	24323,62
549,356	24052,06
549,552	24441,59
549,747	24443,84
549,942	24491,35
550,138	24388,95
550,333	24170,64
550,529	24170,43
550,724	24102,85
550,919	23791,56
551,115	23930,41
551,31	23736,67
551,505	24107,36
551,701	24035,27
551,896	24161,63
552,091	24281,23
552,287	24234,33
552,482	24033,02
552,677	23958,88
552,872	23710,67
553,067	23837,03
553,263	24141,56
553,458	24246,82
553,653	23974,24
553,848	24168,39
554,043	23800,57
554,239	23892,12
554,434	23932,26
554,629	24156,71
554,824	23983,86
555,019	24035,47
555,214	24155,69
555,409	24196,44
555,604	24079,71
555,799	24210,16
555,994	24084,83
556,189	23971,58
556,384	24046,94
556,579	24184,57
556,774	23927,75
556,969	23858,73
557,164	23529,01
557,359	23627,52
557,554	23395,28
557,749	23574,07
557,944	23421,08
558,139	23488,05
558,334	23526,76
558,529	23647,38
558,724	23575,09
558,918	23547,24
559,113	23440,54
559,308	23414,94
559,503	23470,03
559,698	23237,99
559,893	22966,02
560,087	22927,32
560,282	22894,35
560,477	23109,79
560,672	23152,18
560,866	23059,21
561,061	22839,66
561,256	23275,68
561,45	23176,56
561,645	23315,61
561,84	23342,44
562,034	23302,71
562,229	23250,69
562,424	23551,54
562,618	23309,67
562,813	23183,52
563,008	22961,52
563,202	23165,91
563,397	23085,63
563,591	23090,75
563,786	22748,94
563,98	22859,73
564,175	22772,9
564,369	22641,63
564,564	22613,98
564,758	22760
564,953	22460,59
565,147	22718,42
565,342	22458,54
565,536	22462,84
565,731	22325,42
565,925	22392,8
566,119	22305,35
566,314	22514,86
566,508	22282,21
566,703	22572,61
566,897	22363,1
567,091	22458,54
567,286	22397,1
567,48	22294,7
567,674	22171,21
567,868	22167,32
568,063	21706,93
568,257	21936,92
568,451	21779,43
568,646	21859,51
568,84	21834,52
569,034	21967,84
569,228	21797,86
569,422	22130,86
569,616	21865,04
569,811	21910,71
570,005	21755,26
570,199	21857,66
570,393	21638,94
570,587	21607,4
570,781	21529,78
570,975	21655,94
571,169	21584,46
571,364	21638,74
571,558	21879,17
571,752	22225,89
571,946	21905,79
572,14	22070,65
572,334	21869,95
572,528	21823,26
572,722	21447,05
572,916	21491,49
573,109	21328,88
573,303	21542,89
573,497	21376,39
573,691	21531,63
573,885	21202,11
574,079	21529,37
574,273	21233,85
574,467	21252,28
574,661	21115,89
574,854	21144,15
575,048	20976,01
575,242	21036,43
575,436	21086,81
575,63	21206,2
575,823	20954,51
576,017	21315,16
576,211	21152,75
576,405	21568,29
576,598	21303,89
576,792	21476,33
576,986	21235,49
577,18	21348,33
577,373	21422,06
577,567	21308,4
577,761	21212,35
577,954	21202,11
578,148	21134,53
578,341	21436,6
578,535	21348,13
578,729	21438,03
578,922	21031,92
579,116	21068,58
579,309	20820,57
579,503	20950,62
579,696	20846,99
579,89	21092,13
580,083	20817,7
580,277	20716,54
580,47	20645,27
580,664	20424,7
580,857	20345,65
581,051	20372,89
581,244	20231,37
581,437	20600,01
581,631	20406,88
581,824	20550,24
582,018	20491,67
582,211	20526,28
582,404	20491,87
582,598	20534,68
582,791	20487,98
582,984	20271,31
583,178	20243,04
583,371	20293,02
583,564	19939,33
583,757	19937,9
583,951	19751,53
584,144	19824,03
584,337	19707,71
584,53	19993,4
584,723	19900,01
584,917	20018,18
585,11	19755,83
585,303	19960,22
585,496	19356,27
585,689	19492,26
585,882	19181,58
586,075	19184,86
586,268	19070,17
586,462	19168,07
586,655	19267,8
586,848	19453,14
587,041	19330,27
587,234	19442,08
587,427	19150,45
587,62	19385,36
587,813	19366,31
588,006	19308,15
588,199	19085,94
588,392	19271,69
588,585	19176,87
588,777	19274,36
588,97	19239,34
589,163	19573,97
589,356	19392,11
589,549	19342,55
589,742	19268,21
589,935	19348,7
590,128	18986,62
590,32	19183,63
590,513	18887,49
590,706	19069,15
590,899	18460,7
591,092	18553,27
591,284	18287,23
591,477	18482,41
591,67	18414,21
591,863	18641,12
592,055	18524,8
592,248	18348,06
592,441	18283,14
592,633	18104,15
592,826	17915,32
593,019	18054,18
593,211	17951,16
593,404	18001,75
593,596	17933,14
593,789	17917,99
593,982	17879,48
594,174	17986,59
594,367	17976,15
594,559	18072,81
594,752	17834,22
594,944	17705,82
595,137	17702,74
595,329	17702,95
595,522	17732,24
595,714	17813,33
595,907	17624,51
596,099	17350,7
596,292	17372,61
596,484	17357,46
596,676	17129,31
596,869	17125,83
597,061	17038,38
597,253	17176,21
597,446	16916,94
597,638	16993,12
597,83	16934,35
598,023	17040,84
598,215	17057,22
598,407	16995,58
598,6	16946,84
598,792	16961,38
598,984	16795,49
599,176	16763,34
599,369	16707,23
599,561	16954,21
599,753	16817
599,945	16998,65
600,137	16920,63
600,329	16748,19
600,522	16630,63
600,714	16858,78
600,906	16797,34
601,098	16947,86
601,29	16679,78
601,482	16771,33
601,674	16558,13
601,866	16574,72
602,058	16349,04
602,25	16306,85
602,442	16167,79
602,634	16311,97
602,826	16097,96
603,018	15974,26
603,21	15865,92
603,402	15836,84
603,594	15709,87
603,786	15880,05
603,978	15847,49
604,17	15844,42
604,362	15856,91
604,554	15616,89
604,745	15549,92
604,937	15851,18
605,129	15553,61
605,321	15468,82
605,513	15417,01
605,704	15459,19
605,896	15144,42
606,088	15147,49
606,28	14940,85
606,471	14984,88
606,663	14760,84
606,855	14813,06
607,047	14809,58
607,238	14709,43
607,43	14401,21
607,622	14573,24
607,813	14316,43
608,005	14571,2
608,197	14514,47
608,388	14631
608,58	14496,03
608,771	14592,29
608,963	14388,52
609,154	14396,71
609,346	14041,8
609,537	14193,55
609,729	14122,69
609,921	14182,49
610,112	14067,8
610,303	14010,46
610,495	13753,85
610,686	13738,29
610,878	13704,49
611,069	13584,69
611,261	13650,84
611,452	13694,66
611,643	13552,13
611,835	13630,97
612,026	13475,53
612,217	13419,21
612,409	13415,32
612,6	13391,16
612,791	13211,14
612,983	13326,64
613,174	13232,03
613,365	13184,11
613,557	13143,76
613,748	13142,12
613,939	12799,5
614,13	13039,72
614,321	12805,23
614,513	12846,4
614,704	12605,55
614,895	12729,46
615,086	12588,15
615,277	12648,56
615,468	12449,7
615,659	12493,94
615,851	12263,95
616,042	12292,42
616,233	12181,01
616,424	12285,05
616,615	12218,28
616,806	12248,59
616,997	12068,37
617,188	12157,66
617,379	12053,83
617,57	11943,24
617,761	11889,58
617,952	11916,62
618,143	11784,32
618,334	11909,86
618,524	11965,77
618,715	11961,06
618,906	12005,91
619,097	11947,54
619,288	11903,92
619,479	11977,24
619,67	12021,06
619,86	12080,05
620,051	11986,66
620,242	12088,65
620,433	12016,15
620,624	12088,03
620,814	11930,54
621,005	11893,89
621,196	11853,75
621,386	11936,69
621,577	11753,6
621,768	11712,03
621,958	11796,61
622,149	11789,03
622,34	11729,43
622,53	11691,75
622,721	11739,47
622,912	11883,44
623,102	11902,28
623,293	11977,03
623,483	11830,19
623,674	11829,58
623,864	11806,44
624,055	11787,8
624,245	11639,12
624,436	11759,33
624,626	11860,09
624,817	11710,18
625,007	11641,99
625,198	11846,37
625,388	11674,14
625,579	11714,48
625,769	11841,25
625,959	11930,13
626,15	11863,58
626,34	11907,61
626,531	11945,9
626,721	11893,68
626,911	11803,57
627,101	11811,56
627,292	11641,78
627,482	11643,83
627,672	11544,91
627,863	11542,66
628,053	11537,13
628,243	11575,63
628,433	11345,64
628,623	11339,3
628,814	11349,74
629,004	11435,76
629,194	11338,07
629,384	11284,82
629,574	11398,07
629,764	11507,43
629,955	11419,37
630,145	11469,75
630,335	11463,4
630,525	11402,78
630,715	11198,4
630,905	11185,49
631,095	11028,82
631,285	11064,66
631,475	10845,74
631,665	10913,52
631,855	10767,09
632,045	10796,99
632,235	10799,86
632,425	10715,69
632,615	10800,27
632,805	10753,37
632,994	10645,24
633,184	10815,22
633,374	10618,62
633,564	10642,78
633,754	10581,34
633,944	10544,89
634,133	10283,77
634,323	10488,16
634,513	10324,73
634,703	10311,42
634,893	10150,65
635,082	9991,53
635,272	9914,73
635,462	9976,99
635,651	9887,08
635,841	9794,72
636,031	9749,87
636,221	9643,37
636,41	9582,34
636,6	9612,86
636,789	9577,84
636,979	9581,11
637,169	9516,4
637,358	9516,81
637,548	9528,69
637,737	9427,11
637,927	9361,78
638,116	9340,07
638,306	9254,26
638,495	9293,58
638,685	9198,14
638,874	9252,83
639,064	9113,15
639,253	9026,12
639,443	9007,07
639,632	8897,91
639,822	8698,44
640,011	8719,33
640,2	8680,42
640,39	8769,71
640,579	8734,69
640,768	8689,02
640,958	8607,31
641,147	8697,62
641,336	8561,02
641,526	8610,99
641,715	8542,79
641,904	8576,18
642,093	8373,63
642,283	8480,13
642,472	8381,62
642,661	8469,27
642,85	8397,39
643,039	8472,14
643,228	8374,45
643,418	8458,01
643,607	8376,91
643,796	8344,55
643,985	8127,88
644,174	8160,44
644,363	8128,08
644,552	8074,63
644,741	7872,08
644,93	8002,13
645,119	7859,39
645,308	7931,27
645,497	7864,71
645,686	7735,08
645,875	7648,04
646,064	7748,8
646,253	7660,53
646,442	7725,86
646,631	7699,85
646,82	7641,07
647,009	7595,2
647,198	7557,52
647,387	7580,45
647,575	7469,25
647,764	7488,5
647,953	7447,54
648,142	7465,77
648,331	7422,56
648,519	7326,92
648,708	7393,68
648,897	7257,08
649,086	7313,81
649,274	7146,08
649,463	7171,27
649,652	7143,01
649,84	7092,83
650,029	7015,21
650,218	6981,83
650,406	6925,31
650,595	6860,39
650,784	6919,78
650,972	6913,43
651,161	6752,05
651,349	6808,78
651,538	6712,93
651,726	6681,6
651,915	6671,77
652,104	6609,92
652,292	6601,32
652,481	6618,11
652,669	6550,74
652,857	6497,49
653,046	6438,71
653,234	6409,63
653,423	6363,55
653,611	6435,43
653,8	6382,8
653,988	6432,16
654,176	6278,56
654,365	6382,8
654,553	6355,77
654,741	6374,41
654,93	6321,36
655,118	6315,42
655,306	6297,2
655,494	6292,9
655,683	6233,1
655,871	6232,69
656,059	6254,8
656,247	6208,93
656,436	6158,55
656,624	6122,1
656,812	5965,43
657	5964,61
657,188	5931,84
657,376	5957,64
657,564	5872,45
657,753	5866,71
657,941	5731,75
658,129	5811,42
658,317	5651,88
658,505	5829,44
658,693	5748,96
658,881	5708,82
659,069	5576,31
659,257	5552,76
659,445	5524,7
659,633	5528,8
659,821	5396,91
660,009	5337,31
660,197	5318,06
660,384	5313,97
660,572	5201,12
660,76	5130,06
660,948	5119
661,136	5045,89
661,324	5053,87
661,512	5046,71
661,699	5016,6
661,887	4989,16
662,075	5002,68
662,263	5011,89
662,451	4978,3
662,638	5000,63
662,826	4899,46
663,014	4997,97
663,201	4926,49
663,389	4989,16
663,577	4944,51
663,764	4916,25
663,952	4890,45
664,14	4788,05
664,327	4802,59
664,515	4787,02
664,702	4793,58
664,89	4752,82
665,078	4738,28
665,265	4769,21
665,453	4670,29
665,64	4617,66
665,828	4559,29
666,015	4461,81
666,203	4484,33
666,39	4522,84
666,578	4426,58
666,765	4457,1
666,952	4420,85
667,14	4428,83
667,327	4373,74
667,515	4361,66
667,702	4338,93
667,889	4319,06
668,077	4357,77
668,264	4267,66
668,451	4330,94
668,638	4291,62
668,826	4213,8
669,013	4222,19
669,2	4261,11
669,388	4309,64
669,575	4206,22
669,762	4271,14
669,949	4210,52
670,136	4269,09
670,323	4156,86
670,511	4267,86
670,698	4191,27
670,885	4212,77
671,072	4172,63
671,259	4180,83
671,446	4128,81
671,633	4140,89
671,82	4023,34
672,007	4046,68
672,194	4002,65
672,381	4049,96
672,568	3980,33
672,755	3935,89
672,942	3914,59
673,129	3881,41
673,316	3809,12
673,503	3783,11
673,69	3752,8
673,877	3773,28
674,064	3719,42
674,251	3642,21
674,437	3626,85
674,624	3627,46
674,811	3611,7
674,998	3644,05
675,185	3614,97
675,372	3610,06
675,558	3606,78
675,745	3578,31
675,932	3553,94
676,119	3600,02
676,305	3491,89
676,492	3462,4
676,679	3447,24
676,865	3443,15
677,052	3433,73
677,239	3446,42
677,425	3371,26
677,612	3446,83
677,798	3428,61
677,985	3361,43
678,172	3302,45
678,358	3300,2
678,545	3298,15
678,731	3229,54
678,918	3215,82
679,104	3199,44
679,291	3222,17
679,477	3180,19
679,664	3163,8
679,85	3155,2
680,036	3130,83
680,223	3078,2
680,409	3085,98
680,596	3085,37
680,782	3107,89
680,968	3061
681,155	3017,58
681,341	3031,71
681,527	2940,37
681,714	3000,99
681,9	2939,96
682,086	2929,31
682,272	2867,26
682,459	2871,56
682,645	2881,59
682,831	2822
683,017	2783,29
683,204	2756,67
683,39	2755,85
683,576	2763,02
683,762	2764,25
683,948	2780,63
684,134	2704,65
684,32	2750,52
684,506	2708,34
684,693	2704,45
684,879	2717,96
685,065	2716,32
685,251	2673,32
685,437	2699,53
685,623	2671,06
685,809	2667,38
685,995	2616,79
686,181	2652,63
686,366	2567,44
686,552	2633,59
686,738	2595,08
686,924	2529,14
687,11	2513,57
687,296	2528,32
687,482	2513,16
687,668	2471,8
687,853	2435,55
688,039	2400,53
688,225	2391,31
688,411	2414,45
688,597	2355,06
688,782	2453,77
688,968	2406,26
689,154	2359,36
689,34	2358,13
689,525	2378,2
689,711	2391,31
689,897	2354,24
690,082	2279,49
690,268	2301,2
690,454	2224,81
690,639	2209,66
690,825	2238,33
691,01	2147,19
691,196	2152,93
691,381	2141,46
691,567	2098,04
691,753	2110,53
691,938	2119,34
692,124	2113,81
692,309	2078,18
692,494	2105,21
692,68	2102,96
692,865	2049,1
693,051	2029,03
693,236	2094,97
693,422	2027,8
693,607	2066,09
693,792	2024,31
693,978	2106,64
694,163	2077,97
694,348	2034,96
694,534	2039,67
694,719	2053,4
694,904	1987,04
695,089	2009,36
695,275	1984,79
695,46	1948,34
695,645	1945,47
695,83	1943,01
696,016	1931,54
696,201	1915,16
696,386	1877,88
696,571	1939,73
696,756	1853,51
696,941	1873,99
697,126	1790,23
697,311	1830,99
697,497	1803,34
697,682	1783,68
697,867	1746,2
698,052	1779,17
698,237	1723,26
698,422	1748,45
698,607	1788,39
698,792	1809,69
698,977	1770,16
699,162	1785,93
699,347	1734,32
699,531	1762,17
699,716	1722,44
699,901	1716,71
700,086	1700,53
700,271	1695,21
700,456	1643,6
700,641	1663,46
700,825	1638,48
701,01	1609,81
701,195	1577,45
701,38	1602,02
701,565	1609,81
701,749	1568,44
701,934	1528,71
702,119	1568,23
702,303	1544,07
702,488	1511,71
702,673	1489,39
702,857	1553,49
703,042	1557,17
703,227	1550,62
703,411	1494,71
703,596	1525,43
703,78	1500,85
703,965	1472,59
704,15	1480,17
704,334	1485,08
704,519	1460,71
704,703	1482,83
704,888	1424,06
705,072	1416,68
705,257	1396,82
705,441	1379,82
705,625	1378,18
705,81	1435,32
705,994	1416,27
706,179	1393,54
706,363	1365,48
706,547	1416,07
706,732	1378,59
706,916	1364,25
707,1	1330,67
707,285	1332,1
707,469	1311,01
707,653	1343,16
707,837	1317,15
708,022	1347,26
708,206	1286,64
708,39	1270,25
708,574	1308,55
708,759	1288,27
708,943	1265,95
709,127	1291,35
709,311	1266,57
709,495	1291,76
709,679	1271,48
709,863	1247,11
710,047	1206,97
710,231	1208,4
710,415	1221,31
710,6	1186,08
710,784	1225,61
710,968	1189,15
711,152	1206,77
711,336	1217,21
711,519	1174,61
711,703	1224,99
711,887	1166,01
712,071	1200,83
712,255	1194,27
712,439	1142,66
712,623	1155,57
712,807	1112,56
712,991	1143,07
713,174	1159,66
713,358	1142,87
713,542	1117,88
713,726	1092,08
713,91	1111,33
714,093	1102,52
714,277	1084,91
714,461	1080
714,645	1043,54
714,828	1085,12
715,012	1067,5
715,196	1039,45
715,379	1065,25
715,563	1043,95
715,747	1052,76
715,93	987,43
716,114	985,18
716,297	1023,06
716,481	1002,17
716,664	967,36
716,848	995,42
717,031	991,11
717,215	976,57
717,398	974,12
717,582	951,59
717,765	918,62
717,949	938,48
718,132	956,3
718,316	930,29
718,499	927,01
718,682	931,93
718,866	926,19
719,049	943,6
719,233	931,11
719,416	912,47
719,599	948,52
719,782	891,58
719,966	905,71
720,149	884,62
720,332	873,77
720,515	897,52
720,699	886,05
720,882	868,65
721,065	847,96
721,248	854,72
721,431	849,19
721,615	852,26
721,798	838,75
721,981	862,09
722,164	862,09
722,347	854,51
722,53	786,73
722,713	818,88
722,896	821,13
723,079	812,53
723,262	794,3
723,445	773,82
723,628	798,81
723,811	787,96
723,994	764,4
724,177	755,6
724,36	752,94
724,543	769,93
724,726	753,55
724,909	750,48
725,091	741,47
725,274	732,46
725,457	747
725,64	754,98
725,823	746,59
726,006	779,15
726,188	785,7
726,371	718,73
726,554	734,09
726,737	708,7
726,919	712,8
727,102	733,07
727,285	698,05
727,467	739,42
727,65	729,38
727,833	712,8
728,015	689,65
728,198	723,04
728,38	691,7
728,563	680,85
728,746	671,84
728,928	670,61
729,111	684,74
729,293	660,78
729,476	677,37
729,658	680,23
729,841	668,15
730,023	674,7
730,205	649,51
730,388	676,14
730,57	656,48
730,753	644,19
730,935	594,22
731,117	665,49
731,3	648,49
731,482	623,91
731,664	631,7
731,847	662,42
732,029	601,39
732,211	616,13
732,394	606,51
732,576	605,69
732,758	609,37
732,94	622,89
733,122	579,88
733,305	610,19
733,487	601,8
733,669	585,41
733,851	593,6
734,033	615,93
734,215	605,69
734,397	585
734,58	618,18
734,762	606,1
734,944	597,49
735,126	555,51
735,308	597,29
735,49	598,93
735,672	555,1
735,854	549,78
736,036	570,46
736,218	554,9
736,399	562,07
736,581	553,46
736,763	567,59
736,945	515,37
737,127	570,67
737,309	523,56
737,491	543,02
737,672	530,53
737,854	523,56
738,036	519,26
738,218	506,57
738,4	495,51
738,581	521,52
738,763	478,3
738,945	495,92
739,127	500,22
739,308	501,65
739,49	474,21
739,672	493,87
739,853	470,11
740,035	463,15
740,216	452,29
740,398	441,23
740,58	479,74
740,761	470,11
740,943	455,16
741,124	452,5
741,306	464,38
741,487	440,62
741,669	474,41
741,85	419,12
742,032	460,49
742,213	449,43
742,394	452,5
742,576	423,62
742,757	449,43
742,939	446,97
743,12	449,43
743,301	449,63
743,483	444,51
743,664	439,19
743,845	414,82
744,027	452,29
744,208	442,05
744,389	418,91
744,57	426,28
744,752	409,29
744,933	434,07
745,114	415,43
745,295	432,84
745,476	418,3
745,657	415,23
745,839	389,01
746,02	390,04
746,201	412,97
746,382	397,41
746,563	396,59
746,744	403,96
746,925	380,82
747,106	422,39
747,287	393,52
747,468	408,88
747,649	426,69
747,83	390,85
748,011	375,7
748,192	377,95
748,373	363,41
748,554	392,9
748,735	367,3
748,915	391,67
749,096	395,97
749,277	372,42
749,458	375,7
749,639	379,39
749,82	369,76
750	391,47
750,181	360,95
750,362	369,35
750,543	394,75
750,723	361,16
750,904	346,21
751,085	371,4
751,265	354,4
751,446	352,76
751,627	371,81
751,807	363,41
751,988	387,17
752,169	356,24
752,349	341,5
752,53	376,72
752,71	347,44
752,891	342,93
753,071	337,2
753,252	358,7
753,432	345,59
753,613	373,45
753,793	346,82
753,974	347,23
754,154	329,83
754,334	363,62
754,515	361,16
754,695	394,54
754,876	365,87
755,056	351,74
755,236	347,44
755,417	327,16
755,597	328,6
755,777	320,2
755,957	348,67
756,138	373,24
756,318	328,19
756,498	327,16
756,678	365,66
756,859	335,35
757,039	280,88
757,219	342,73
757,399	327,57
757,579	315,28
757,759	347,64
757,939	307,91
758,119	345,59
758,3	320
758,48	323,68
758,66	322,04
758,84	330,03
759,02	346,82
759,2	331,46
759,38	321,84
759,56	322,04
759,74	327,78
759,919	316,92
760,099	349,08
760,279	290,3
760,459	306,27
760,639	303,82
760,819	331,05
760,999	314,26
761,178	331,26
761,358	308,12
761,538	319,79
761,718	319,18
761,898	331,46
762,077	321,02
762,257	335,56
762,437	323,89
762,616	339,25
762,796	279,65
762,976	293,17
763,155	303
763,335	300,33
763,515	309,14
763,694	274,12
763,874	257,53
764,053	299,31
764,233	273,1
764,413	308,53
764,592	304,84
764,772	304,02
764,951	295,42
765,131	255,07
765,31	273,3
765,489	300,74
765,669	280,88
765,848	268,39
766,028	294,19
766,207	260,81
766,386	269,21
766,566	253,64
766,745	255,07
766,924	260,19
767,104	248,73
767,283	252,62
767,462	201,83
767,642	245,86
767,821	251,18
768	256,92
768,179	238,08
768,358	237,67
768,538	230,29
768,717	249,95
768,896	237,46
769,075	217,8
769,254	203,88
769,433	222,31
769,612	250,57
769,791	207,77
769,97	244,43
770,149	234,8
770,328	224,15
770,507	199,57
770,686	208,18
770,865	210,22
771,044	210,63
771,223	238,08
771,402	203,06
771,581	210,43
771,76	213,91
771,939	197,73
772,118	224,15
772,297	212,48
772,475	199,16
772,654	227,43
772,833	164,35
773,012	177,25
773,191	168,86
773,369	190,56
773,548	169,88
773,727	184,62
773,906	210,84
774,084	204,08
774,263	206,13
774,442	174,18
774,62	220,46
774,799	180,32
774,977	189,33
775,156	172,34
775,335	184,21
775,513	173,36
775,692	139,57
775,87	151,65
776,049	140,18
776,227	170,29
776,406	178,48
776,584	154,52
776,763	178,89
776,941	170,08
777,119	162,71
777,298	140,39
777,476	170,9
777,655	138,75
777,833	141,41
778,011	161,69
778,19	171,72
778,368	155,13
778,546	155,34
778,725	133,83
778,903	160,05
779,081	156,77
779,259	139,77
779,437	150,42
779,616	136,91
779,794	146,12
779,972	120,93
780,15	143,87
780,328	118,47
780,506	126,05
780,685	129,94
780,863	129,53
781,041	119,09
781,219	126,87
781,397	145,92
781,575	117,86
781,753	132,61
781,931	126,87
782,109	99,84
782,287	102,09
782,465	138,55
782,643	153,09
782,82	131,58
782,998	121,55
783,176	136,7
783,354	86,53
783,532	113,76
783,71	143,67
783,888	113,36
784,065	129,53
784,243	124,82
784,421	106,19
784,599	103,73
784,776	112,13
784,954	95,54
785,132	113,97
785,31	97,38
785,487	122,78
785,665	121,75
785,842	123,59
786,02	130,56
786,198	111,72
786,375	88,37
786,553	125,64
786,73	84,48
786,908	109,26
787,085	91,03
787,263	83,05
787,44	114,38
787,618	61,95
787,795	87,96
787,973	102,91
788,15	87,35
788,328	73,83
788,505	108,85
788,682	106,39
788,86	78,33
789,037	87,35
789,215	79,77
789,392	85,09
789,569	109,87
789,746	96,36
789,924	121,96
790,101	97,79
790,278	111,1
790,455	111,1
790,633	67,89
790,81	70,76
790,987	65,02
791,164	86,32
791,341	76,08
791,518	72,81
791,695	116,02
791,873	88,98
792,05	92,88
792,227	54,99
792,404	86,94
792,581	69,53
792,758	79,97
792,935	88,17
793,112	102,71
793,289	83,05
793,466	80,59
793,643	53,14
793,82	76,49
793,996	66,87
794,173	98,2
794,35	80,79
794,527	74,03
794,704	84,68
794,881	75,88
795,057	79,15
795,234	65,64
795,411	97,79
795,588	67,28
795,765	74,03
795,941	83,25
796,118	50,28
796,295	74,03
796,471	82,84
796,648	66,46
796,825	73,62
797,001	26,11
797,178	61,54
797,354	69,32
797,531	67,89
797,708	88,78
797,884	76,9
798,061	66,66
798,237	69,12
798,414	71,58
798,59	46,59
798,767	65,43
798,943	64,41
799,119	71,58
799,296	46,59
799,472	33,89
799,649	37,79
799,825	63,18
800,001	39,22
800,178	69,12
800,354	68,09
800,53	71,78
800,707	80,79
800,883	74,85
801,059	65,23
801,235	76,08
801,411	63,18
801,588	56,22
801,764	37,58
801,94	30,21
802,116	22,83
802,292	58,67
802,468	42,29
802,645	74,44
802,821	76,29
802,997	65,02
803,173	61,13
803,349	35,53
803,525	61,54
803,701	55,19
803,877	47,62
804,053	65,02
804,229	51,51
804,405	47,82
804,581	67,89
804,756	45,98
804,932	56,83
805,108	85,71
805,284	29,8
805,46	57,04
805,636	77,31
805,812	45,98
805,987	26,52
806,163	44,34
806,339	39,22
806,515	51,71
806,69	28,16
806,866	39,01
807,042	45,98
807,217	36,56
807,393	66,66
807,569	40,45
807,744	55,19
807,92	37,79
808,096	60,52
808,271	36,15
808,447	52,53
808,622	33,69
808,798	38,19
808,973	49,46
809,149	18,33
809,324	11,78
809,5	43,72
809,675	13,62
809,851	46,39
810,026	30,82
810,201	57,24
810,377	37,58
810,552	10,75
810,728	26,11
810,903	46,39
811,078	7,88
811,253	40,24
811,429	62,36
811,604	28,57
811,779	37,17
811,955	9,73
812,13	36,76
812,305	47,62
812,48	49,87
812,655	7,48
812,83	49,25
813,006	58,47
813,181	28,16
813,356	26,32
813,531	53,96
813,706	23,86
813,881	44,13
814,056	36,35
814,231	53,96
814,406	26,32
814,581	65,64
814,756	60,11
814,931	40,45
815,106	39,01
815,281	22,43
815,456	26,52
815,631	58,88
815,805	59,49
815,98	23,04
816,155	28,16
816,33	48,84
816,505	29,39
816,68	23,24
816,854	39,42
817,029	19,35
817,204	24,47
817,379	56,01
817,553	29,59
817,728	36,15
817,903	16,69
818,077	41,47
818,252	65,84
818,427	45,98
818,601	13,41
818,776	36,56
818,95	50,28
819,125	61,13
819,299	-1,95
819,474	57,45
819,648	24,06
819,823	47
819,997	39,22
820,172	15,46
820,346	49,46
820,521	22,02
820,695	44,95
820,87	21,4
821,044	7,27
821,218	-3,38
821,393	65,23
821,567	21,2
821,741	23,04
821,916	21,61
822,09	23,24
822,264	33,28
822,438	21,81
822,613	12,19
822,787	-6,86
822,961	-9,73
823,135	10,96
823,309	24,47
823,483	67,28
823,658	25,91
823,832	19,97
824,006	23,65
824,18	28,36
824,354	13,62
824,528	8,29
824,702	30,62
824,876	8,5
825,05	32,05
825,224	4,81
825,398	10,96
825,572	29,8
825,746	6,04
825,92	13,21
826,093	-0,92
826,267	39,22
826,441	11,78
826,615	-15,87
826,789	23,86
826,963	4,2
827,136	5,02
827,31	19,35
827,484	16,49
827,658	24,47
827,831	39,63
828,005	24,68
828,179	19,56
828,353	1,54
828,526	13,62
828,7	11,98
828,873	-24,47
829,047	-13,41
829,221	15,87
829,394	-13,41
829,568	32,05
829,741	-9,11
829,915	26,11
830,088	12,6
830,262	21,4
830,435	-8,29
830,609	7,27
830,782	19,97
830,956	36,15
831,129	28,98
831,302	9,73
831,476	27,34
831,649	24,06
831,822	13,62
831,996	-11,37
832,169	18,74
832,342	13
832,516	24,47
832,689	5,22
832,862	45,57
833,035	36,35
833,209	52,94
833,382	16,28
833,555	15,26
833,728	-2,56
833,901	37,38
834,074	0,92
834,247	18,33
834,42	24,88
834,594	3,38
834,767	11,37
834,94	17,31
835,113	-9,52
835,286	0,51
835,459	25,7
835,632	0,72
835,805	-1,95
835,977	28,57
836,15	18,74
836,323	-3,79
836,496	17,1
836,669	41,68
836,842	4,4
837,015	17,1
837,188	10,55
837,36	19,56
837,533	16,08
837,706	17,31
837,879	9,73
838,051	-4,4
838,224	33,28
838,397	18,33
838,569	3,99
838,742	39,83
838,915	-1,74
839,087	4,4
839,26	3,58
839,433	-5,63
839,605	32,87
839,778	27,75
839,95	10,55
840,123	4,4
840,295	7,88
840,468	21,81
840,64	5,63
840,813	2,76
840,985	18,53
841,158	-15,87
841,33	28,36
841,502	42,7
841,675	11,37
841,847	-7,88
842,019	4,61
842,192	1,33
842,364	26,11
842,536	0,51
842,709	-24,88
842,881	3,99
843,053	8,09
843,225	19,56
843,398	-11,78
843,57	20,38
843,742	34,3
843,914	20,99
844,086	-3,58
844,258	19,15
844,43	-0,72
844,602	2,76
844,775	11,98
844,947	0,92
845,119	13,82
845,291	5,43
845,463	-11,37
845,635	19,76
845,807	14,44
845,979	-5,84
846,15	-8,7
846,322	-33,28
846,494	7,68
846,666	9,73
846,838	-12,6
847,01	8,91
847,182	2,56
847,354	6,04
847,525	32,87
847,697	-24,06
847,869	33,69
848,041	9,52
848,212	-3,79
848,384	0,31
848,556	40,04
848,727	10,34
848,899	6,04
849,071	12,19
849,242	32,87
849,414	19,56
849,585	10,75
849,757	13,21
849,929	12,19
850,1	-0,51
850,272	-6,25
850,443	-15,67
850,615	0,92
850,786	7,27
850,958	-6,25
851,129	23,65
851,3	36,76
851,472	-6,86
851,643	-2,15
851,815	-34,1
851,986	6,45
852,157	-1,74
852,329	7,27
852,5	16,69
852,671	25,09
852,842	8,7
853,014	21,2
853,185	6,66
853,356	-2,76
853,527	7,07
853,698	34,1
853,87	32,46
854,041	1,54
854,212	16,69
854,383	24,68
854,554	7,68
854,725	18,12
854,896	-11,57
855,067	-3,38
855,238	25,91
855,409	-4,2
855,58	2,97
855,751	-9,52
855,922	21,81
856,093	-2,76
856,264	8,29
856,435	9,93
856,606	32,67
856,777	-5,63
856,948	-1,74
857,118	19,35
857,289	-3,79
857,46	18,12
857,631	12,19
857,802	13,21
857,972	-15,05
858,143	42,5
858,314	8,09
858,484	20,58
858,655	-8,29
858,826	39,63
858,996	15,87
859,167	23,45
859,338	10,96
859,508	15,46
859,679	-5,02
859,849	-3,58
860,02	-0,31
860,19	11,16
860,361	-1,33
860,531	-3,79
860,702	-10,75
860,872	1,54
861,043	23,45
861,213	16,08
861,384	-16,69
861,554	-9,93
861,724	9,32
861,895	30,21
862,065	7,88
862,235	25,29
862,406	-36,15
862,576	1,54
862,746	-7,88
862,916	19,97
863,087	3,99
863,257	-20,38
863,427	5,43
863,597	8,5
863,767	23,65
863,937	-5,22
864,108	-13,41
864,278	0,31
864,448	13
864,618	33,89
864,788	-17,51
864,958	12,19
865,128	34,71
865,298	-4,4
865,468	-3,99
865,638	27,95
865,808	5,84
865,978	-24,68
866,148	-5,22
866,318	6,66
866,487	-22,22
866,657	-26,73
866,827	9,93
866,997	23,86
867,167	-19,97
867,337	-6,25
867,506	-0,72
867,676	-3,38
867,846	-14,44
868,016	-17,51
868,185	6,25
868,355	-26,32
868,525	17,31
868,694	13,41
868,864	14,23
869,034	16,69
869,203	-5,22
869,373	7,07
869,542	-9,32
869,712	41,88
869,881	-7,07
870,051	18,33
870,22	-19,15
870,39	28,98
870,559	14,44
870,729	-0,1
870,898	12,6
871,068	13
871,237	19,35
871,406	18,12
871,576	10,34
871,745	-0,92
871,914	4,61
872,084	19,35
872,253	31,44
872,422	5,63
872,591	-13,82
872,761	-20,99
872,93	1,95
873,099	5,22
873,268	7,27
873,437	5,84
873,607	-35,12
873,776	-17,51
873,945	19,15
874,114	10,34
874,283	-21,4
874,452	-7,07
874,621	28,16
874,79	4,4
874,959	-16,49
875,128	5,22
875,297	3,79
875,466	-17,1
875,635	-5,63
875,804	8,5
875,973	-13,41
876,142	8,5
876,31	-0,92
876,479	-8,29
876,648	14,03
876,817	19,15
876,986	-1,74
877,155	-1,33
877,323	-3,17
877,492	-11,16
877,661	42,29
877,829	-13,82
877,998	-5,63
878,167	-5,43
878,335	32,46
878,504	10,55
878,673	-12,8
878,841	-37,58
879,01	-0,72
879,178	-14,03
879,347	-8,29
879,515	13,62
879,684	16,9
879,852	8,29
880,021	-20,38
880,189	-45,77
880,358	8,7
880,526	11,57
880,695	-7,68
880,863	-16,49
881,031	15,67
881,2	-20,17
881,368	-19,76
881,536	1,95
881,705	0,92
881,873	-38,19
882,041	17,31
882,21	0,1
882,378	30,82
882,546	-9,73
882,714	-1,74
882,882	11,78
883,05	-1,13
883,219	-14,64
883,387	7,68
883,555	-14,23
883,723	-43,72
883,891	25,7
884,059	2,76
884,227	7,48
884,395	-5,63
884,563	2,15
884,731	0,72
884,899	-9,73
885,067	38,19
885,235	0,92
885,403	-8,29
885,571	-6,04
885,739	-1,33
